Filename,ppg-mpu-hb24
Instrument name,5500-0556 (172.23.168.35)
Operator,yuran
rundate,5/26/2023
Sample name,PPG-MPU-HB24
proceduresegments,Ramp 10.00 °C/min to 600.00 °C
[File Parameters]
Run date,5/26/2023
Trios version,5.6.0.75
Original File Name,C:\Users\SMF_TGA\Documents\TGA5500 DATA\Bao\Yuran Shi TGA\PPG-MPU-HB24.tri
Current File Name,c:\users\smf_tga\documents\tga5500 data\bao\yuran shi tga\ppg-mpu-hb24.tri
User at run start,DESKTOP-E75AHEP\SMF_TGA
[Procedure]
Procedure Name,Ramp
Sample Name,PPG-MPU-HB24
Pan Number,22
Sample Mass,1.970 mg
Pan Type,Platinum (100 uL)
Comments,PPG-MPU with Tomi
Project Name,
Operator,yuran
Test,Ramp
Skip Weight Stabilization,True
Sample mass pre-weigh,Not Available
Stop on Gas Flow Error,No
[Signal List]
Signal #1,Time (min)
Signal #2,Temperature (°C)
Signal #3,Weight (mg)
Signal #4,Temperature Difference (°C)
Signal #5,Sample Purge (mL/min)
Signal #6,Balance Purge (mL/min)
Signal #7,Set Point Temperature (°C)
Signal #8,Power Delivered (W)
Signal #9,Ramp Rate (°C/min)
[Configuration]
Company Name,SMF
Instrument Name,5500-0556
Instrument Type,TGA5500
Serial Number,5500-0556
IP,172.23.168.35
Location of Instrument,Manufacturing Test
DisplayType,Unknown
Sample Interval ,0.1 s/pt
Gas 1,Nitrogen
Gas 2,Air
Selected Gas Channel,2
MTGA HiRes Licensed,Yes
[Versions]
Common IDD Version,1
Cortex Version,VER 2.1.2.72
Driver,5.0.0.6
GDM Version,1.2.1.2
TouchscreenVersion,1.0.3.1821
PCU Version,1.2.0.22
Transducer Version,1.1.0.32
[Experiment Logs]
Experiment Log Entry # 1,Ramp Segment 10 C/min to 600 C Started
[Method Log]
Method Log Entry # 1,(Ramp 27388) Ramp 10 °C/minute to 600 °C
[Weight Calibration]
Date Applied,5/23/2023 2:51:56 PM
Empty Pan Weight,0.000 mg
Low Reference Weight,100.000 mg
High Reference Weight,"1,000.000 mg"
Low Gain Meter Reading,1.0099E-005 mg/count
High Gain Meter Reading,8.0395E-005 mg/count
Low Meter Offset,51.6849 mg
High Meter Offset,640.4736 mg
[Curie Calibration]
Date Applied,5/23/2023 12:58:20 PM
Description,From 256.940 °C to 456.940 °C at 20.000°C/min
Gas Type,Nitrogen
Pan Type,Alumina (100 uL)
Source Files 1,C:\ProgramData\TA Instruments\TRIOS\Data\Nickel TEMP CAL.tri
Source Files 2,C:\ProgramData\TA Instruments\TRIOS\Data\Alumel TEMP CAL.tri
Measured 1,163.7472
Known 1,154.16
Measured 2,357.6078
Known 2,356.94
[step]
Ramp 10.00 °C/min to 600.00 °C
Time,Temperature,Weight,Weight
min,°C,mg,%
0.00,23.82,1.970,99.997
0.00,23.82,1.970,99.996
0.00,23.82,1.970,99.995
0.01,23.82,1.970,99.996
0.01,23.82,1.970,99.999
0.01,23.82,1.970,100.004
0.01,23.82,1.970,100.012
0.01,23.82,1.970,100.023
0.01,23.82,1.971,100.035
0.01,23.82,1.971,100.048
0.02,23.82,1.971,100.060
0.02,23.82,1.971,100.073
0.02,23.82,1.972,100.087
0.02,23.82,1.972,100.101
0.02,23.82,1.972,100.114
0.03,23.82,1.972,100.124
0.03,23.82,1.973,100.131
0.03,23.82,1.973,100.135
0.03,23.82,1.973,100.141
0.03,23.82,1.973,100.148
0.03,23.82,1.973,100.157
0.03,23.82,1.973,100.164
0.04,23.82,1.973,100.167
0.04,23.82,1.973,100.169
0.04,23.82,1.973,100.171
0.04,23.82,1.973,100.174
0.04,23.82,1.974,100.178
0.05,23.82,1.974,100.184
0.05,23.82,1.974,100.188
0.05,23.82,1.974,100.190
0.05,23.82,1.974,100.192
0.05,23.82,1.974,100.194
0.05,23.82,1.974,100.196
0.05,23.82,1.974,100.199
0.06,23.82,1.974,100.202
0.06,23.82,1.974,100.204
0.06,23.82,1.974,100.206
0.06,23.82,1.974,100.208
0.06,23.82,1.974,100.209
0.07,23.82,1.974,100.211
0.07,23.82,1.974,100.213
0.07,23.82,1.974,100.216
0.07,23.82,1.974,100.218
0.07,23.82,1.974,100.220
0.07,23.82,1.974,100.221
0.08,23.82,1.974,100.223
0.08,23.82,1.974,100.224
0.08,23.82,1.974,100.226
0.08,23.82,1.975,100.229
0.08,23.82,1.975,100.231
0.08,23.82,1.975,100.232
0.08,23.82,1.975,100.234
0.09,23.82,1.975,100.235
0.09,23.82,1.975,100.237
0.09,23.82,1.975,100.239
0.09,23.83,1.975,100.241
0.09,23.83,1.975,100.243
0.09,23.83,1.975,100.245
0.10,23.83,1.975,100.246
0.10,23.83,1.975,100.247
0.10,23.83,1.975,100.249
0.10,23.83,1.975,100.250
0.10,23.83,1.975,100.252
0.11,23.83,1.975,100.254
0.11,23.83,1.975,100.256
0.11,23.83,1.975,100.258
0.11,23.83,1.975,100.259
0.11,23.83,1.975,100.260
0.11,23.83,1.975,100.262
0.12,23.83,1.975,100.263
0.12,23.83,1.975,100.265
0.12,23.83,1.975,100.267
0.12,23.83,1.975,100.269
0.12,23.83,1.975,100.270
0.12,23.83,1.975,100.271
0.13,23.83,1.975,100.272
0.13,23.83,1.975,100.274
0.13,23.83,1.975,100.276
0.13,23.83,1.976,100.278
0.13,23.83,1.976,100.279
0.13,23.83,1.976,100.280
0.14,23.83,1.976,100.281
0.14,23.83,1.976,100.282
0.14,23.83,1.976,100.284
0.14,23.83,1.976,100.285
0.14,23.83,1.976,100.287
0.14,23.84,1.976,100.288
0.14,23.84,1.976,100.289
0.15,23.84,1.976,100.290
0.15,23.84,1.976,100.291
0.15,23.84,1.976,100.293
0.15,23.84,1.976,100.295
0.15,23.84,1.976,100.296
0.16,23.84,1.976,100.297
0.16,23.84,1.976,100.298
0.16,23.84,1.976,100.299
0.16,23.84,1.976,100.301
0.16,23.84,1.976,100.302
0.16,23.84,1.976,100.303
0.16,23.84,1.976,100.305
0.17,23.84,1.976,100.306
0.17,23.84,1.976,100.307
0.17,23.84,1.976,100.308
0.17,23.84,1.976,100.309
0.17,23.85,1.976,100.310
0.18,23.85,1.976,100.311
0.18,23.85,1.976,100.312
0.18,23.85,1.976,100.313
0.18,23.85,1.976,100.314
0.18,23.85,1.976,100.315
0.18,23.85,1.976,100.316
0.19,23.85,1.976,100.317
0.19,23.85,1.976,100.319
0.19,23.85,1.976,100.320
0.19,23.85,1.976,100.321
0.19,23.85,1.976,100.322
0.19,23.86,1.976,100.323
0.19,23.86,1.976,100.324
0.20,23.86,1.976,100.325
0.20,23.86,1.976,100.326
0.20,23.86,1.976,100.327
0.20,23.86,1.976,100.328
0.20,23.86,1.977,100.329
0.21,23.86,1.977,100.330
0.21,23.87,1.977,100.331
0.21,23.87,1.977,100.332
0.21,23.87,1.977,100.333
0.21,23.87,1.977,100.335
0.21,23.87,1.977,100.336
0.21,23.87,1.977,100.337
0.22,23.87,1.977,100.338
0.22,23.88,1.977,100.339
0.22,23.88,1.977,100.339
0.22,23.88,1.977,100.341
0.22,23.88,1.977,100.342
0.23,23.88,1.977,100.343
0.23,23.89,1.977,100.344
0.23,23.89,1.977,100.344
0.23,23.89,1.977,100.345
0.23,23.89,1.977,100.346
0.23,23.89,1.977,100.347
0.24,23.90,1.977,100.348
0.24,23.90,1.977,100.349
0.24,23.90,1.977,100.350
0.24,23.90,1.977,100.351
0.24,23.91,1.977,100.352
0.24,23.91,1.977,100.353
0.24,23.91,1.977,100.354
0.25,23.92,1.977,100.355
0.25,23.92,1.977,100.356
0.25,23.92,1.977,100.357
0.25,23.92,1.977,100.358
0.25,23.93,1.977,100.359
0.26,23.93,1.977,100.360
0.26,23.93,1.977,100.361
0.26,23.94,1.977,100.362
0.26,23.94,1.977,100.362
0.26,23.95,1.977,100.363
0.26,23.95,1.977,100.364
0.26,23.95,1.977,100.366
0.27,23.96,1.977,100.367
0.27,23.96,1.977,100.367
0.27,23.97,1.977,100.368
0.27,23.97,1.977,100.369
0.27,23.97,1.977,100.370
0.28,23.98,1.977,100.371
0.28,23.98,1.977,100.372
0.28,23.99,1.977,100.373
0.28,23.99,1.977,100.374
0.28,24.00,1.977,100.374
0.28,24.00,1.977,100.375
0.29,24.01,1.977,100.376
0.29,24.01,1.977,100.377
0.29,24.02,1.977,100.378
0.29,24.03,1.977,100.379
0.29,24.03,1.978,100.380
0.29,24.04,1.978,100.381
0.30,24.04,1.978,100.381
0.30,24.05,1.978,100.382
0.30,24.06,1.978,100.383
0.30,24.06,1.978,100.384
0.30,24.07,1.978,100.385
0.30,24.07,1.978,100.386
0.30,24.08,1.978,100.387
0.31,24.09,1.978,100.388
0.31,24.10,1.978,100.388
0.31,24.10,1.978,100.389
0.31,24.11,1.978,100.390
0.31,24.12,1.978,100.391
0.31,24.13,1.978,100.392
0.32,24.13,1.978,100.393
0.32,24.14,1.978,100.394
0.32,24.15,1.978,100.394
0.32,24.16,1.978,100.395
0.32,24.17,1.978,100.396
0.33,24.17,1.978,100.397
0.33,24.18,1.978,100.399
0.33,24.19,1.978,100.400
0.33,24.20,1.978,100.400
0.33,24.21,1.978,100.400
0.33,24.22,1.978,100.401
0.34,24.23,1.978,100.402
0.34,24.24,1.978,100.403
0.34,24.25,1.978,100.405
0.34,24.26,1.978,100.405
0.34,24.27,1.978,100.406
0.34,24.28,1.978,100.406
0.35,24.29,1.978,100.407
0.35,24.30,1.978,100.408
0.35,24.31,1.978,100.410
0.35,24.32,1.978,100.411
0.35,24.33,1.978,100.411
0.35,24.34,1.978,100.412
0.35,24.35,1.978,100.413
0.36,24.36,1.978,100.413
0.36,24.37,1.978,100.414
0.36,24.38,1.978,100.416
0.36,24.39,1.978,100.417
0.36,24.41,1.978,100.417
0.36,24.42,1.978,100.418
0.37,24.43,1.978,100.419
0.37,24.44,1.978,100.419
0.37,24.45,1.978,100.420
0.37,24.46,1.978,100.421
0.37,24.48,1.978,100.422
0.38,24.49,1.978,100.423
0.38,24.50,1.978,100.424
0.38,24.51,1.978,100.425
0.38,24.52,1.978,100.425
0.38,24.54,1.978,100.426
0.38,24.55,1.978,100.427
0.39,24.56,1.978,100.428
0.39,24.57,1.978,100.429
0.39,24.59,1.978,100.429
0.39,24.60,1.978,100.430
0.39,24.61,1.979,100.430
0.39,24.63,1.979,100.431
0.40,24.64,1.979,100.431
0.40,24.65,1.979,100.432
0.40,24.67,1.979,100.433
0.40,24.68,1.979,100.434
0.40,24.69,1.979,100.434
0.40,24.71,1.979,100.434
0.40,24.72,1.979,100.435
0.41,24.73,1.979,100.435
0.41,24.75,1.979,100.436
0.41,24.76,1.979,100.437
0.41,24.77,1.979,100.438
0.41,24.79,1.979,100.438
0.41,24.80,1.979,100.438
0.42,24.81,1.979,100.438
0.42,24.83,1.979,100.439
0.42,24.84,1.979,100.440
0.42,24.86,1.979,100.440
0.42,24.87,1.979,100.441
0.43,24.88,1.979,100.441
0.43,24.90,1.979,100.441
0.43,24.91,1.979,100.441
0.43,24.92,1.979,100.442
0.43,24.94,1.979,100.442
0.43,24.95,1.979,100.443
0.44,24.97,1.979,100.443
0.44,24.98,1.979,100.443
0.44,24.99,1.979,100.443
0.44,25.01,1.979,100.444
0.44,25.02,1.979,100.444
0.44,25.04,1.979,100.445
0.45,25.05,1.979,100.445
0.45,25.06,1.979,100.445
0.45,25.08,1.979,100.445
0.45,25.09,1.979,100.446
0.45,25.11,1.979,100.446
0.45,25.12,1.979,100.446
0.45,25.13,1.979,100.447
0.46,25.15,1.979,100.447
0.46,25.16,1.979,100.447
0.46,25.17,1.979,100.447
0.46,25.19,1.979,100.447
0.46,25.20,1.979,100.448
0.46,25.22,1.979,100.448
0.47,25.23,1.979,100.448
0.47,25.24,1.979,100.448
0.47,25.26,1.979,100.448
0.47,25.27,1.979,100.449
0.47,25.29,1.979,100.449
0.48,25.30,1.979,100.449
0.48,25.31,1.979,100.449
0.48,25.33,1.979,100.449
0.48,25.34,1.979,100.449
0.48,25.35,1.979,100.450
0.48,25.37,1.979,100.450
0.49,25.38,1.979,100.450
0.49,25.39,1.979,100.450
0.49,25.41,1.979,100.450
0.49,25.42,1.979,100.450
0.49,25.44,1.979,100.450
0.49,25.45,1.979,100.451
0.50,25.46,1.979,100.451
0.50,25.48,1.979,100.451
0.50,25.49,1.979,100.451
0.50,25.50,1.979,100.451
0.50,25.52,1.979,100.451
0.50,25.53,1.979,100.451
0.50,25.54,1.979,100.451
0.51,25.56,1.979,100.451
0.51,25.57,1.979,100.451
0.51,25.58,1.979,100.452
0.51,25.60,1.979,100.452
0.51,25.61,1.979,100.452
0.51,25.62,1.979,100.452
0.52,25.64,1.979,100.452
0.52,25.65,1.979,100.452
0.52,25.66,1.979,100.452
0.52,25.67,1.979,100.452
0.52,25.69,1.979,100.452
0.53,25.70,1.979,100.452
0.53,25.71,1.979,100.452
0.53,25.73,1.979,100.452
0.53,25.74,1.979,100.452
0.53,25.75,1.979,100.452
0.53,25.77,1.979,100.452
0.53,25.78,1.979,100.452
0.54,25.79,1.979,100.452
0.54,25.81,1.979,100.452
0.54,25.82,1.979,100.452
0.54,25.83,1.979,100.452
0.54,25.84,1.979,100.452
0.55,25.86,1.979,100.452
0.55,25.87,1.979,100.452
0.55,25.88,1.979,100.452
0.55,25.90,1.979,100.452
0.55,25.91,1.979,100.452
0.55,25.92,1.979,100.452
0.55,25.94,1.979,100.453
0.56,25.95,1.979,100.454
0.56,25.96,1.979,100.455
0.56,25.98,1.979,100.455
0.56,25.99,1.979,100.455
0.56,26.00,1.979,100.454
0.57,26.02,1.979,100.454
0.57,26.03,1.979,100.454
0.57,26.04,1.979,100.454
0.57,26.06,1.979,100.454
0.57,26.07,1.979,100.454
0.57,26.08,1.979,100.454
0.58,26.10,1.979,100.453
0.58,26.11,1.979,100.453
0.58,26.12,1.979,100.454
0.58,26.14,1.979,100.454
0.58,26.15,1.979,100.454
0.58,26.16,1.979,100.454
0.58,26.18,1.979,100.454
0.59,26.19,1.979,100.454
0.59,26.21,1.979,100.454
0.59,26.22,1.979,100.454
0.59,26.23,1.979,100.454
0.59,26.25,1.979,100.454
0.60,26.26,1.979,100.454
0.60,26.28,1.979,100.454
0.60,26.29,1.979,100.454
0.60,26.31,1.979,100.454
0.60,26.32,1.979,100.454
0.60,26.34,1.979,100.454
0.60,26.35,1.979,100.455
0.61,26.37,1.979,100.455
0.61,26.38,1.979,100.455
0.61,26.40,1.979,100.455
0.61,26.41,1.979,100.455
0.61,26.43,1.979,100.455
0.62,26.44,1.979,100.455
0.62,26.46,1.979,100.455
0.62,26.47,1.979,100.456
0.62,26.49,1.979,100.456
0.62,26.50,1.979,100.456
0.62,26.52,1.979,100.456
0.63,26.54,1.979,100.456
0.63,26.55,1.979,100.456
0.63,26.57,1.979,100.457
0.63,26.58,1.979,100.458
0.63,26.60,1.979,100.458
0.63,26.62,1.979,100.458
0.63,26.63,1.979,100.457
0.64,26.65,1.979,100.457
0.64,26.66,1.979,100.458
0.64,26.68,1.979,100.458
0.64,26.70,1.979,100.459
0.64,26.71,1.979,100.459
0.65,26.73,1.979,100.459
0.65,26.75,1.979,100.460
0.65,26.77,1.979,100.460
0.65,26.78,1.979,100.461
0.65,26.80,1.979,100.461
0.65,26.82,1.979,100.461
0.65,26.83,1.979,100.462
0.66,26.85,1.979,100.462
0.66,26.87,1.979,100.462
0.66,26.89,1.979,100.463
0.66,26.90,1.979,100.463
0.66,26.92,1.979,100.463
0.67,26.94,1.979,100.463
0.67,26.96,1.979,100.464
0.67,26.97,1.979,100.464
0.67,26.99,1.979,100.464
0.67,27.01,1.979,100.464
0.67,27.03,1.979,100.464
0.68,27.04,1.979,100.465
0.68,27.06,1.979,100.465
0.68,27.08,1.979,100.465
0.68,27.10,1.979,100.465
0.68,27.12,1.979,100.466
0.68,27.13,1.979,100.465
0.68,27.15,1.979,100.465
0.69,27.17,1.979,100.466
0.69,27.19,1.979,100.466
0.69,27.21,1.979,100.467
0.69,27.22,1.979,100.467
0.69,27.24,1.979,100.467
0.70,27.26,1.979,100.467
0.70,27.28,1.979,100.466
0.70,27.30,1.979,100.467
0.70,27.31,1.979,100.467
0.70,27.33,1.979,100.467
0.70,27.35,1.979,100.467
0.70,27.37,1.979,100.467
0.71,27.39,1.979,100.467
0.71,27.40,1.979,100.467
0.71,27.42,1.979,100.467
0.71,27.44,1.979,100.467
0.71,27.46,1.979,100.468
0.72,27.48,1.979,100.468
0.72,27.49,1.979,100.467
0.72,27.51,1.979,100.467
0.72,27.53,1.979,100.467
0.72,27.55,1.979,100.467
0.72,27.57,1.979,100.468
0.73,27.58,1.979,100.468
0.73,27.60,1.979,100.467
0.73,27.62,1.979,100.467
0.73,27.64,1.979,100.467
0.73,27.66,1.979,100.467
0.73,27.67,1.979,100.467
0.73,27.69,1.979,100.467
0.74,27.71,1.979,100.467
0.74,27.73,1.979,100.467
0.74,27.74,1.979,100.467
0.74,27.76,1.979,100.467
0.74,27.78,1.979,100.466
0.75,27.80,1.979,100.466
0.75,27.81,1.979,100.466
0.75,27.83,1.979,100.466
0.75,27.85,1.979,100.466
0.75,27.87,1.979,100.466
0.75,27.88,1.979,100.466
0.75,27.90,1.979,100.465
0.76,27.92,1.979,100.465
0.76,27.94,1.979,100.465
0.76,27.95,1.979,100.465
0.76,27.97,1.979,100.465
0.76,27.99,1.979,100.465
0.77,28.00,1.979,100.465
0.77,28.02,1.979,100.464
0.77,28.04,1.979,100.464
0.77,28.05,1.979,100.464
0.77,28.07,1.979,100.464
0.77,28.09,1.979,100.464
0.78,28.10,1.979,100.464
0.78,28.12,1.979,100.463
0.78,28.14,1.979,100.463
0.78,28.15,1.979,100.463
0.78,28.17,1.979,100.463
0.78,28.19,1.979,100.462
0.78,28.20,1.979,100.462
0.79,28.22,1.979,100.462
0.79,28.24,1.979,100.462
0.79,28.25,1.979,100.462
0.79,28.27,1.979,100.462
0.79,28.29,1.979,100.462
0.80,28.30,1.979,100.461
0.80,28.32,1.979,100.461
0.80,28.33,1.979,100.461
0.80,28.35,1.979,100.461
0.80,28.37,1.979,100.461
0.80,28.38,1.979,100.460
0.80,28.40,1.979,100.460
0.81,28.41,1.979,100.460
0.81,28.43,1.979,100.460
0.81,28.44,1.979,100.459
0.81,28.46,1.979,100.459
0.81,28.48,1.979,100.459
0.82,28.49,1.979,100.459
0.82,28.51,1.979,100.459
0.82,28.52,1.979,100.458
0.82,28.54,1.979,100.458
0.82,28.55,1.979,100.458
0.82,28.57,1.979,100.457
0.83,28.58,1.979,100.457
0.83,28.60,1.979,100.457
0.83,28.61,1.979,100.457
0.83,28.63,1.979,100.457
0.83,28.64,1.979,100.456
0.83,28.66,1.979,100.456
0.83,28.68,1.979,100.456
0.84,28.69,1.979,100.456
0.84,28.71,1.979,100.456
0.84,28.72,1.979,100.456
0.84,28.74,1.979,100.456
0.84,28.75,1.979,100.456
0.85,28.77,1.979,100.456
0.85,28.78,1.979,100.456
0.85,28.80,1.979,100.457
0.85,28.81,1.979,100.457
0.85,28.83,1.979,100.456
0.85,28.84,1.979,100.456
0.85,28.86,1.979,100.455
0.86,28.87,1.979,100.455
0.86,28.89,1.979,100.454
0.86,28.90,1.979,100.454
0.86,28.92,1.979,100.454
0.86,28.93,1.979,100.454
0.87,28.95,1.979,100.453
0.87,28.96,1.979,100.453
0.87,28.98,1.979,100.453
0.87,28.99,1.979,100.452
0.87,29.01,1.979,100.452
0.87,29.02,1.979,100.452
0.88,29.04,1.979,100.452
0.88,29.06,1.979,100.452
0.88,29.07,1.979,100.451
0.88,29.09,1.979,100.451
0.88,29.10,1.979,100.451
0.88,29.12,1.979,100.451
0.88,29.13,1.979,100.451
0.89,29.15,1.979,100.451
0.89,29.17,1.979,100.451
0.89,29.18,1.979,100.451
0.89,29.20,1.979,100.450
0.89,29.21,1.979,100.450
0.90,29.23,1.979,100.450
0.90,29.25,1.979,100.450
0.90,29.26,1.979,100.451
0.90,29.28,1.979,100.451
0.90,29.29,1.979,100.451
0.90,29.31,1.979,100.450
0.90,29.33,1.979,100.450
0.91,29.34,1.979,100.450
0.91,29.36,1.979,100.450
0.91,29.38,1.979,100.451
0.91,29.39,1.979,100.451
0.91,29.41,1.979,100.451
0.92,29.43,1.979,100.451
0.92,29.45,1.979,100.451
0.92,29.46,1.979,100.451
0.92,29.48,1.979,100.451
0.92,29.50,1.979,100.451
0.92,29.51,1.979,100.451
0.93,29.53,1.979,100.451
0.93,29.55,1.979,100.451
0.93,29.57,1.979,100.451
0.93,29.58,1.979,100.451
0.93,29.60,1.979,100.452
0.93,29.62,1.979,100.452
0.93,29.64,1.979,100.452
0.94,29.65,1.979,100.452
0.94,29.67,1.979,100.452
0.94,29.69,1.979,100.452
0.94,29.71,1.979,100.452
0.94,29.73,1.979,100.452
0.95,29.74,1.979,100.452
0.95,29.76,1.979,100.452
0.95,29.78,1.979,100.453
0.95,29.80,1.979,100.453
0.95,29.82,1.979,100.453
0.95,29.84,1.979,100.453
0.95,29.85,1.979,100.453
0.96,29.87,1.979,100.453
0.96,29.89,1.979,100.454
0.96,29.91,1.979,100.454
0.96,29.93,1.979,100.454
0.96,29.95,1.979,100.454
0.97,29.97,1.979,100.454
0.97,29.98,1.979,100.454
0.97,30.00,1.979,100.455
0.97,30.02,1.979,100.455
0.97,30.04,1.979,100.455
0.97,30.06,1.979,100.455
0.98,30.08,1.979,100.455
0.98,30.10,1.979,100.455
0.98,30.12,1.979,100.455
0.98,30.13,1.979,100.455
0.98,30.15,1.979,100.455
0.98,30.17,1.979,100.456
0.98,30.19,1.979,100.455
0.99,30.21,1.979,100.455
0.99,30.23,1.979,100.455
0.99,30.25,1.979,100.455
0.99,30.27,1.979,100.455
0.99,30.29,1.979,100.455
1.00,30.30,1.979,100.455
1.00,30.32,1.979,100.455
1.00,30.34,1.979,100.455
1.00,30.36,1.979,100.455
1.00,30.38,1.979,100.455
1.00,30.40,1.979,100.455
1.00,30.42,1.979,100.455
1.01,30.44,1.979,100.455
1.01,30.45,1.979,100.455
1.01,30.47,1.979,100.455
1.01,30.49,1.979,100.455
1.01,30.51,1.979,100.455
1.02,30.53,1.979,100.455
1.02,30.55,1.979,100.455
1.02,30.57,1.979,100.454
1.02,30.58,1.979,100.454
1.02,30.60,1.979,100.454
1.02,30.62,1.979,100.454
1.03,30.64,1.979,100.454
1.03,30.66,1.979,100.453
1.03,30.68,1.979,100.453
1.03,30.69,1.979,100.453
1.03,30.71,1.979,100.453
1.03,30.73,1.979,100.453
1.03,30.75,1.979,100.453
1.04,30.77,1.979,100.452
1.04,30.79,1.979,100.452
1.04,30.80,1.979,100.452
1.04,30.82,1.979,100.452
1.04,30.84,1.979,100.452
1.05,30.86,1.979,100.451
1.05,30.87,1.979,100.451
1.05,30.89,1.979,100.451
1.05,30.91,1.979,100.451
1.05,30.93,1.979,100.450
1.05,30.95,1.979,100.450
1.05,30.96,1.979,100.450
1.06,30.98,1.979,100.450
1.06,31.00,1.979,100.450
1.06,31.02,1.979,100.449
1.06,31.03,1.979,100.449
1.06,31.05,1.979,100.449
1.07,31.07,1.979,100.449
1.07,31.08,1.979,100.448
1.07,31.10,1.979,100.448
1.07,31.12,1.979,100.448
1.07,31.14,1.979,100.448
1.07,31.15,1.979,100.448
1.08,31.17,1.979,100.448
1.08,31.19,1.979,100.448
1.08,31.20,1.979,100.448
1.08,31.22,1.979,100.448
1.08,31.24,1.979,100.448
1.08,31.25,1.979,100.448
1.08,31.27,1.979,100.448
1.09,31.29,1.979,100.447
1.09,31.30,1.979,100.447
1.09,31.32,1.979,100.447
1.09,31.34,1.979,100.446
1.09,31.35,1.979,100.446
1.09,31.37,1.979,100.446
1.10,31.38,1.979,100.445
1.10,31.40,1.979,100.445
1.10,31.42,1.979,100.445
1.10,31.43,1.979,100.444
1.10,31.45,1.979,100.444
1.11,31.47,1.979,100.444
1.11,31.48,1.979,100.444
1.11,31.50,1.979,100.443
1.11,31.51,1.979,100.443
1.11,31.53,1.979,100.442
1.11,31.54,1.979,100.442
1.12,31.56,1.979,100.442
1.12,31.58,1.979,100.442
1.12,31.59,1.979,100.441
1.12,31.61,1.979,100.441
1.12,31.62,1.979,100.441
1.12,31.64,1.979,100.440
1.13,31.65,1.979,100.440
1.13,31.67,1.979,100.440
1.13,31.68,1.979,100.440
1.13,31.70,1.979,100.439
1.13,31.72,1.979,100.439
1.13,31.73,1.979,100.439
1.13,31.75,1.979,100.438
1.14,31.76,1.979,100.438
1.14,31.78,1.979,100.437
1.14,31.79,1.979,100.437
1.14,31.81,1.979,100.437
1.14,31.82,1.979,100.437
1.14,31.84,1.979,100.436
1.15,31.85,1.979,100.436
1.15,31.87,1.979,100.436
1.15,31.88,1.979,100.435
1.15,31.90,1.979,100.435
1.15,31.92,1.979,100.435
1.16,31.93,1.979,100.434
1.16,31.95,1.979,100.434
1.16,31.96,1.979,100.434
1.16,31.98,1.979,100.433
1.16,31.99,1.979,100.433
1.16,32.01,1.979,100.433
1.17,32.02,1.979,100.433
1.17,32.04,1.979,100.432
1.17,32.05,1.979,100.432
1.17,32.07,1.979,100.432
1.17,32.09,1.979,100.432
1.17,32.10,1.979,100.431
1.18,32.12,1.979,100.431
1.18,32.13,1.979,100.431
1.18,32.15,1.979,100.431
1.18,32.17,1.979,100.431
1.18,32.18,1.979,100.431
1.18,32.20,1.979,100.431
1.18,32.21,1.979,100.431
1.19,32.23,1.979,100.431
1.19,32.25,1.979,100.431
1.19,32.26,1.979,100.431
1.19,32.28,1.979,100.431
1.19,32.30,1.979,100.431
1.19,32.31,1.979,100.431
1.20,32.33,1.979,100.431
1.20,32.35,1.979,100.431
1.20,32.36,1.979,100.431
1.20,32.38,1.979,100.431
1.20,32.40,1.979,100.431
1.21,32.41,1.979,100.431
1.21,32.43,1.979,100.431
1.21,32.45,1.979,100.431
1.21,32.46,1.979,100.431
1.21,32.48,1.979,100.431
1.21,32.50,1.979,100.431
1.22,32.52,1.979,100.431
1.22,32.53,1.979,100.431
1.22,32.55,1.979,100.431
1.22,32.57,1.979,100.431
1.22,32.59,1.979,100.431
1.22,32.60,1.979,100.431
1.23,32.62,1.979,100.431
1.23,32.64,1.979,100.432
1.23,32.66,1.979,100.432
1.23,32.68,1.979,100.432
1.23,32.69,1.979,100.432
1.23,32.71,1.979,100.432
1.23,32.73,1.979,100.432
1.24,32.75,1.979,100.432
1.24,32.77,1.979,100.432
1.24,32.79,1.979,100.433
1.24,32.80,1.979,100.433
1.24,32.82,1.979,100.433
1.24,32.84,1.979,100.433
1.25,32.86,1.979,100.433
1.25,32.88,1.979,100.433
1.25,32.90,1.979,100.433
1.25,32.91,1.979,100.433
1.25,32.93,1.979,100.434
1.26,32.95,1.979,100.434
1.26,32.97,1.979,100.434
1.26,32.99,1.979,100.434
1.26,33.01,1.979,100.434
1.26,33.03,1.979,100.434
1.26,33.05,1.979,100.434
1.27,33.06,1.979,100.434
1.27,33.08,1.979,100.434
1.27,33.10,1.979,100.434
1.27,33.12,1.979,100.434
1.27,33.14,1.979,100.434
1.27,33.16,1.979,100.434
1.28,33.18,1.979,100.434
1.28,33.20,1.979,100.434
1.28,33.22,1.979,100.434
1.28,33.23,1.979,100.434
1.28,33.25,1.979,100.434
1.28,33.27,1.979,100.434
1.28,33.29,1.979,100.433
1.29,33.31,1.979,100.433
1.29,33.33,1.979,100.433
1.29,33.35,1.979,100.433
1.29,33.37,1.979,100.433
1.29,33.39,1.979,100.433
1.29,33.40,1.979,100.433
1.30,33.42,1.979,100.433
1.30,33.44,1.979,100.433
1.30,33.46,1.979,100.433
1.30,33.48,1.979,100.432
1.30,33.50,1.979,100.432
1.31,33.52,1.979,100.432
1.31,33.54,1.979,100.432
1.31,33.55,1.979,100.432
1.31,33.57,1.979,100.432
1.31,33.59,1.979,100.431
1.31,33.61,1.979,100.431
1.32,33.63,1.979,100.431
1.32,33.65,1.979,100.431
1.32,33.66,1.979,100.431
1.32,33.68,1.979,100.431
1.32,33.70,1.979,100.430
1.32,33.72,1.979,100.430
1.33,33.74,1.979,100.430
1.33,33.76,1.978,100.430
1.33,33.77,1.978,100.430
1.33,33.79,1.978,100.429
1.33,33.81,1.978,100.429
1.33,33.83,1.978,100.429
1.33,33.85,1.978,100.429
1.34,33.86,1.978,100.428
1.34,33.88,1.978,100.428
1.34,33.90,1.978,100.428
1.34,33.92,1.978,100.428
1.34,33.94,1.978,100.427
1.34,33.95,1.978,100.427
1.35,33.97,1.978,100.427
1.35,33.99,1.978,100.427
1.35,34.01,1.978,100.426
1.35,34.02,1.978,100.426
1.35,34.04,1.978,100.426
1.36,34.06,1.978,100.425
1.36,34.07,1.978,100.425
1.36,34.09,1.978,100.425
1.36,34.11,1.978,100.424
1.36,34.13,1.978,100.424
1.36,34.14,1.978,100.424
1.37,34.16,1.978,100.424
1.37,34.18,1.978,100.423
1.37,34.19,1.978,100.423
1.37,34.21,1.978,100.423
1.37,34.23,1.978,100.422
1.37,34.24,1.978,100.422
1.38,34.26,1.978,100.422
1.38,34.28,1.978,100.422
1.38,34.29,1.978,100.421
1.38,34.31,1.978,100.421
1.38,34.33,1.978,100.421
1.38,34.34,1.978,100.420
1.38,34.36,1.978,100.420
1.39,34.38,1.978,100.420
1.39,34.39,1.978,100.420
1.39,34.41,1.978,100.419
1.39,34.42,1.978,100.419
1.39,34.44,1.978,100.418
1.39,34.46,1.978,100.418
1.40,34.47,1.978,100.418
1.40,34.49,1.978,100.418
1.40,34.50,1.978,100.417
1.40,34.52,1.978,100.417
1.40,34.53,1.978,100.416
1.41,34.55,1.978,100.416
1.41,34.57,1.978,100.416
1.41,34.58,1.978,100.416
1.41,34.60,1.978,100.415
1.41,34.61,1.978,100.415
1.41,34.63,1.978,100.415
1.42,34.64,1.978,100.414
1.42,34.66,1.978,100.414
1.42,34.67,1.978,100.414
1.42,34.69,1.978,100.413
1.42,34.71,1.978,100.413
1.42,34.72,1.978,100.413
1.43,34.74,1.978,100.412
1.43,34.75,1.978,100.412
1.43,34.77,1.978,100.411
1.43,34.78,1.978,100.411
1.43,34.80,1.978,100.411
1.43,34.81,1.978,100.410
1.43,34.83,1.978,100.410
1.44,34.84,1.978,100.410
1.44,34.86,1.978,100.409
1.44,34.87,1.978,100.409
1.44,34.89,1.978,100.409
1.44,34.90,1.978,100.408
1.44,34.92,1.978,100.408
1.45,34.94,1.978,100.408
1.45,34.95,1.978,100.408
1.45,34.97,1.978,100.407
1.45,34.98,1.978,100.407
1.45,35.00,1.978,100.407
1.46,35.01,1.978,100.407
1.46,35.03,1.978,100.406
1.46,35.04,1.978,100.406
1.46,35.06,1.978,100.406
1.46,35.08,1.978,100.406
1.46,35.09,1.978,100.406
1.47,35.11,1.978,100.405
1.47,35.12,1.978,100.405
1.47,35.14,1.978,100.405
1.47,35.15,1.978,100.405
1.47,35.17,1.978,100.405
1.47,35.19,1.978,100.405
1.48,35.20,1.978,100.405
1.48,35.22,1.978,100.404
1.48,35.24,1.978,100.404
1.48,35.25,1.978,100.404
1.48,35.27,1.978,100.404
1.48,35.28,1.978,100.404
1.48,35.30,1.978,100.404
1.49,35.32,1.978,100.404
1.49,35.33,1.978,100.404
1.49,35.35,1.978,100.404
1.49,35.37,1.978,100.404
1.49,35.39,1.978,100.404
1.49,35.40,1.978,100.404
1.50,35.42,1.978,100.404
1.50,35.44,1.978,100.404
1.50,35.45,1.978,100.404
1.50,35.47,1.978,100.404
1.50,35.49,1.978,100.404
1.51,35.51,1.978,100.404
1.51,35.52,1.978,100.404
1.51,35.54,1.978,100.404
1.51,35.56,1.978,100.404
1.51,35.58,1.978,100.404
1.51,35.59,1.978,100.404
1.52,35.61,1.978,100.404
1.52,35.63,1.978,100.404
1.52,35.65,1.978,100.404
1.52,35.67,1.978,100.404
1.52,35.68,1.978,100.405
1.52,35.70,1.978,100.405
1.53,35.72,1.978,100.405
1.53,35.74,1.978,100.405
1.53,35.76,1.978,100.405
1.53,35.77,1.978,100.405
1.53,35.79,1.978,100.405
1.53,35.81,1.978,100.406
1.53,35.83,1.978,100.406
1.54,35.85,1.978,100.406
1.54,35.87,1.978,100.406
1.54,35.89,1.978,100.406
1.54,35.90,1.978,100.406
1.54,35.92,1.978,100.406
1.54,35.94,1.978,100.406
1.55,35.96,1.978,100.406
1.55,35.98,1.978,100.406
1.55,36.00,1.978,100.406
1.55,36.02,1.978,100.406
1.55,36.04,1.978,100.406
1.56,36.05,1.978,100.406
1.56,36.07,1.978,100.406
1.56,36.09,1.978,100.406
1.56,36.11,1.978,100.406
1.56,36.13,1.978,100.406
1.56,36.15,1.978,100.406
1.57,36.17,1.978,100.406
1.57,36.19,1.978,100.406
1.57,36.21,1.978,100.406
1.57,36.23,1.978,100.406
1.57,36.24,1.978,100.406
1.57,36.26,1.978,100.406
1.58,36.28,1.978,100.406
1.58,36.30,1.978,100.406
1.58,36.32,1.978,100.406
1.58,36.34,1.978,100.405
1.58,36.36,1.978,100.405
1.58,36.38,1.978,100.405
1.58,36.40,1.978,100.405
1.59,36.41,1.978,100.405
1.59,36.43,1.978,100.405
1.59,36.45,1.978,100.404
1.59,36.47,1.978,100.404
1.59,36.49,1.978,100.404
1.59,36.51,1.978,100.404
1.60,36.53,1.978,100.404
1.60,36.55,1.978,100.404
1.60,36.56,1.978,100.403
1.60,36.58,1.978,100.403
1.60,36.60,1.978,100.403
1.61,36.62,1.978,100.403
1.61,36.64,1.978,100.403
1.61,36.66,1.978,100.402
1.61,36.67,1.978,100.402
1.61,36.69,1.978,100.402
1.61,36.71,1.978,100.401
1.62,36.73,1.978,100.401
1.62,36.75,1.978,100.401
1.62,36.77,1.978,100.401
1.62,36.78,1.978,100.401
1.62,36.80,1.978,100.400
1.62,36.82,1.978,100.400
1.63,36.84,1.978,100.400
1.63,36.86,1.978,100.399
1.63,36.87,1.978,100.399
1.63,36.89,1.978,100.399
1.63,36.91,1.978,100.399
1.63,36.93,1.978,100.398
1.63,36.94,1.978,100.398
1.64,36.96,1.978,100.398
1.64,36.98,1.978,100.397
1.64,37.00,1.978,100.397
1.64,37.01,1.978,100.397
1.64,37.03,1.978,100.396
1.64,37.05,1.978,100.396
1.65,37.07,1.978,100.396
1.65,37.08,1.978,100.395
1.65,37.10,1.978,100.395
1.65,37.12,1.978,100.395
1.65,37.13,1.978,100.395
1.66,37.15,1.978,100.394
1.66,37.17,1.978,100.394
1.66,37.18,1.978,100.394
1.66,37.20,1.978,100.394
1.66,37.22,1.978,100.393
1.66,37.23,1.978,100.393
1.67,37.25,1.978,100.392
1.67,37.27,1.978,100.392
1.67,37.28,1.978,100.391
1.67,37.30,1.978,100.391
1.67,37.32,1.978,100.390
1.67,37.33,1.978,100.390
1.68,37.35,1.978,100.390
1.68,37.37,1.978,100.389
1.68,37.38,1.978,100.389
1.68,37.40,1.978,100.389
1.68,37.41,1.978,100.388
1.68,37.43,1.978,100.388
1.68,37.45,1.978,100.387
1.69,37.46,1.978,100.387
1.69,37.48,1.978,100.386
1.69,37.49,1.978,100.386
1.69,37.51,1.978,100.386
1.69,37.52,1.978,100.385
1.69,37.54,1.978,100.385
1.70,37.56,1.978,100.384
1.70,37.57,1.978,100.384
1.70,37.59,1.978,100.384
1.70,37.60,1.978,100.383
1.70,37.62,1.978,100.383
1.71,37.63,1.978,100.382
1.71,37.65,1.978,100.382
1.71,37.66,1.978,100.382
1.71,37.68,1.978,100.381
1.71,37.69,1.978,100.381
1.71,37.71,1.978,100.380
1.72,37.72,1.978,100.380
1.72,37.74,1.978,100.380
1.72,37.76,1.977,100.379
1.72,37.77,1.977,100.379
1.72,37.79,1.977,100.379
1.72,37.80,1.977,100.378
1.73,37.82,1.977,100.378
1.73,37.83,1.977,100.378
1.73,37.85,1.977,100.377
1.73,37.86,1.977,100.377
1.73,37.88,1.977,100.377
1.73,37.89,1.977,100.376
1.73,37.91,1.977,100.376
1.74,37.92,1.977,100.375
1.74,37.94,1.977,100.375
1.74,37.95,1.977,100.375
1.74,37.97,1.977,100.374
1.74,37.99,1.977,100.374
1.74,38.00,1.977,100.374
1.75,38.02,1.977,100.373
1.75,38.03,1.977,100.373
1.75,38.05,1.977,100.373
1.75,38.06,1.977,100.373
1.75,38.08,1.977,100.373
1.76,38.10,1.977,100.372
1.76,38.11,1.977,100.372
1.76,38.13,1.977,100.372
1.76,38.14,1.977,100.371
1.76,38.16,1.977,100.371
1.76,38.17,1.977,100.371
1.77,38.19,1.977,100.371
1.77,38.21,1.977,100.370
1.77,38.22,1.977,100.370
1.77,38.24,1.977,100.370
1.77,38.26,1.977,100.370
1.77,38.27,1.977,100.370
1.78,38.29,1.977,100.369
1.78,38.31,1.977,100.369
1.78,38.32,1.977,100.369
1.78,38.34,1.977,100.369
1.78,38.36,1.977,100.369
1.78,38.37,1.977,100.369
1.78,38.39,1.977,100.369
1.79,38.41,1.977,100.368
1.79,38.42,1.977,100.368
1.79,38.44,1.977,100.368
1.79,38.46,1.977,100.368
1.79,38.48,1.977,100.368
1.79,38.49,1.977,100.368
1.80,38.51,1.977,100.368
1.80,38.53,1.977,100.368
1.80,38.55,1.977,100.368
1.80,38.57,1.977,100.368
1.80,38.58,1.977,100.368
1.81,38.60,1.977,100.368
1.81,38.62,1.977,100.368
1.81,38.64,1.977,100.368
1.81,38.65,1.977,100.368
1.81,38.67,1.977,100.368
1.81,38.69,1.977,100.368
1.82,38.71,1.977,100.368
1.82,38.73,1.977,100.368
1.82,38.75,1.977,100.368
1.82,38.76,1.977,100.368
1.82,38.78,1.977,100.368
1.82,38.80,1.977,100.368
1.83,38.82,1.977,100.368
1.83,38.84,1.977,100.368
1.83,38.86,1.977,100.368
1.83,38.88,1.977,100.368
1.83,38.89,1.977,100.368
1.83,38.91,1.977,100.368
1.83,38.93,1.977,100.368
1.84,38.95,1.977,100.368
1.84,38.97,1.977,100.368
1.84,38.99,1.977,100.367
1.84,39.01,1.977,100.367
1.84,39.03,1.977,100.367
1.84,39.05,1.977,100.367
1.85,39.06,1.977,100.367
1.85,39.08,1.977,100.367
1.85,39.10,1.977,100.367
1.85,39.12,1.977,100.367
1.85,39.14,1.977,100.366
1.86,39.16,1.977,100.366
1.86,39.18,1.977,100.366
1.86,39.20,1.977,100.366
1.86,39.22,1.977,100.366
1.86,39.24,1.977,100.366
1.86,39.25,1.977,100.365
1.87,39.27,1.977,100.365
1.87,39.29,1.977,100.365
1.87,39.31,1.977,100.365
1.87,39.33,1.977,100.365
1.87,39.35,1.977,100.364
1.87,39.37,1.977,100.364
1.88,39.39,1.977,100.364
1.88,39.41,1.977,100.364
1.88,39.42,1.977,100.364
1.88,39.44,1.977,100.363
1.88,39.46,1.977,100.363
1.88,39.48,1.977,100.363
1.88,39.50,1.977,100.362
1.89,39.52,1.977,100.362
1.89,39.54,1.977,100.362
1.89,39.56,1.977,100.362
1.89,39.57,1.977,100.361
1.89,39.59,1.977,100.361
1.89,39.61,1.977,100.361
1.90,39.63,1.977,100.360
1.90,39.65,1.977,100.360
1.90,39.67,1.977,100.360
1.90,39.68,1.977,100.359
1.90,39.70,1.977,100.359
1.91,39.72,1.977,100.359
1.91,39.74,1.977,100.358
1.91,39.76,1.977,100.358
1.91,39.78,1.977,100.358
1.91,39.79,1.977,100.357
1.91,39.81,1.977,100.357
1.92,39.83,1.977,100.357
1.92,39.85,1.977,100.356
1.92,39.86,1.977,100.356
1.92,39.88,1.977,100.356
1.92,39.90,1.977,100.355
1.92,39.92,1.977,100.355
1.93,39.94,1.977,100.354
1.93,39.95,1.977,100.354
1.93,39.97,1.977,100.353
1.93,39.99,1.977,100.353
1.93,40.01,1.977,100.352
1.93,40.02,1.977,100.352
1.93,40.04,1.977,100.352
1.94,40.06,1.977,100.351
1.94,40.07,1.977,100.351
1.94,40.09,1.977,100.350
1.94,40.11,1.977,100.350
1.94,40.13,1.977,100.349
1.94,40.14,1.977,100.349
1.95,40.16,1.977,100.349
1.95,40.18,1.977,100.348
1.95,40.19,1.977,100.348
1.95,40.21,1.977,100.347
1.95,40.23,1.977,100.347
1.96,40.24,1.977,100.346
1.96,40.26,1.977,100.346
1.96,40.27,1.977,100.345
1.96,40.29,1.977,100.345
1.96,40.31,1.977,100.344
1.96,40.32,1.977,100.344
1.97,40.34,1.977,100.343
1.97,40.36,1.977,100.343
1.97,40.37,1.977,100.342
1.97,40.39,1.977,100.342
1.97,40.40,1.977,100.342
1.97,40.42,1.977,100.341
1.98,40.44,1.977,100.341
1.98,40.45,1.977,100.340
1.98,40.47,1.977,100.340
1.98,40.48,1.977,100.339
1.98,40.50,1.977,100.339
1.98,40.51,1.977,100.338
1.98,40.53,1.977,100.337
1.99,40.55,1.977,100.337
1.99,40.56,1.977,100.336
1.99,40.58,1.977,100.336
1.99,40.59,1.977,100.335
1.99,40.61,1.977,100.335
1.99,40.62,1.977,100.334
2.00,40.64,1.977,100.334
2.00,40.65,1.977,100.333
2.00,40.67,1.977,100.333
2.00,40.68,1.977,100.332
2.00,40.70,1.977,100.332
2.01,40.71,1.977,100.331
2.01,40.73,1.977,100.331
2.01,40.74,1.977,100.330
2.01,40.76,1.977,100.330
2.01,40.78,1.977,100.329
2.01,40.79,1.977,100.329
2.02,40.81,1.976,100.328
2.02,40.82,1.976,100.327
2.02,40.84,1.976,100.327
2.02,40.85,1.976,100.327
2.02,40.87,1.976,100.326
2.02,40.88,1.976,100.326
2.03,40.90,1.976,100.325
2.03,40.91,1.976,100.325
2.03,40.93,1.976,100.324
2.03,40.94,1.976,100.324
2.03,40.96,1.976,100.324
2.03,40.98,1.976,100.323
2.03,40.99,1.976,100.323
2.04,41.01,1.976,100.322
2.04,41.02,1.976,100.322
2.04,41.04,1.976,100.322
2.04,41.05,1.976,100.321
2.04,41.07,1.976,100.321
2.04,41.08,1.976,100.321
2.05,41.10,1.976,100.320
2.05,41.12,1.976,100.320
2.05,41.13,1.976,100.319
2.05,41.15,1.976,100.319
2.05,41.16,1.976,100.319
2.06,41.18,1.976,100.318
2.06,41.20,1.976,100.318
2.06,41.21,1.976,100.318
2.06,41.23,1.976,100.318
2.06,41.25,1.976,100.317
2.06,41.26,1.976,100.317
2.07,41.28,1.976,100.317
2.07,41.30,1.976,100.316
2.07,41.31,1.976,100.316
2.07,41.33,1.976,100.316
2.07,41.35,1.976,100.316
2.07,41.36,1.976,100.316
2.08,41.38,1.976,100.315
2.08,41.40,1.976,100.315
2.08,41.42,1.976,100.315
2.08,41.43,1.976,100.315
2.08,41.45,1.976,100.315
2.08,41.47,1.976,100.314
2.08,41.49,1.976,100.314
2.09,41.50,1.976,100.314
2.09,41.52,1.976,100.314
2.09,41.54,1.976,100.314
2.09,41.56,1.976,100.314
2.09,41.57,1.976,100.314
2.09,41.59,1.976,100.314
2.10,41.61,1.976,100.313
2.10,41.63,1.976,100.313
2.10,41.65,1.976,100.313
2.10,41.67,1.976,100.313
2.10,41.68,1.976,100.313
2.11,41.70,1.976,100.313
2.11,41.72,1.976,100.313
2.11,41.74,1.976,100.313
2.11,41.76,1.976,100.312
2.11,41.78,1.976,100.312
2.11,41.79,1.976,100.312
2.12,41.81,1.976,100.312
2.12,41.83,1.976,100.312
2.12,41.85,1.976,100.312
2.12,41.87,1.976,100.312
2.12,41.89,1.976,100.311
2.12,41.91,1.976,100.311
2.13,41.93,1.976,100.311
2.13,41.94,1.976,100.311
2.13,41.96,1.976,100.310
2.13,41.98,1.976,100.310
2.13,42.00,1.976,100.310
2.13,42.02,1.976,100.310
2.14,42.04,1.976,100.309
2.14,42.06,1.976,100.309
2.14,42.08,1.976,100.309
2.14,42.10,1.976,100.308
2.14,42.11,1.976,100.308
2.14,42.13,1.976,100.308
2.14,42.15,1.976,100.308
2.15,42.17,1.976,100.307
2.15,42.19,1.976,100.307
2.15,42.21,1.976,100.307
2.15,42.23,1.976,100.306
2.15,42.25,1.976,100.306
2.16,42.27,1.976,100.306
2.16,42.29,1.976,100.306
2.16,42.30,1.976,100.305
2.16,42.32,1.976,100.305
2.16,42.34,1.976,100.304
2.16,42.36,1.976,100.304
2.16,42.38,1.976,100.304
2.17,42.40,1.976,100.303
2.17,42.42,1.976,100.303
2.17,42.44,1.976,100.303
2.17,42.46,1.976,100.302
2.17,42.47,1.976,100.301
2.18,42.49,1.976,100.301
2.18,42.51,1.976,100.301
2.18,42.53,1.976,100.300
2.18,42.55,1.976,100.300
2.18,42.57,1.976,100.299
2.18,42.59,1.976,100.299
2.19,42.60,1.976,100.298
2.19,42.62,1.976,100.298
2.19,42.64,1.976,100.297
2.19,42.66,1.976,100.297
2.19,42.68,1.976,100.297
2.19,42.69,1.976,100.296
2.19,42.71,1.976,100.296
2.20,42.73,1.976,100.295
2.20,42.75,1.976,100.295
2.20,42.77,1.976,100.294
2.20,42.78,1.976,100.294
2.20,42.80,1.976,100.293
2.21,42.82,1.976,100.293
2.21,42.84,1.976,100.292
2.21,42.86,1.976,100.291
2.21,42.87,1.976,100.291
2.21,42.89,1.976,100.290
2.21,42.91,1.976,100.290
2.21,42.93,1.976,100.289
2.22,42.94,1.976,100.289
2.22,42.96,1.976,100.288
2.22,42.98,1.976,100.288
2.22,43.00,1.976,100.287
2.22,43.01,1.976,100.286
2.23,43.03,1.976,100.286
2.23,43.05,1.976,100.285
2.23,43.06,1.976,100.285
2.23,43.08,1.976,100.284
2.23,43.10,1.976,100.283
2.23,43.11,1.976,100.283
2.24,43.13,1.976,100.282
2.24,43.15,1.976,100.281
2.24,43.16,1.976,100.281
2.24,43.18,1.976,100.280
2.24,43.20,1.976,100.280
2.24,43.21,1.976,100.279
2.24,43.23,1.976,100.279
2.25,43.25,1.976,100.278
2.25,43.26,1.975,100.277
2.25,43.28,1.975,100.277
2.25,43.29,1.975,100.276
2.25,43.31,1.975,100.276
2.26,43.33,1.975,100.275
2.26,43.34,1.975,100.274
2.26,43.36,1.975,100.274
2.26,43.37,1.975,100.273
2.26,43.39,1.975,100.273
2.26,43.40,1.975,100.272
2.26,43.42,1.975,100.271
2.27,43.44,1.975,100.271
2.27,43.45,1.975,100.270
2.27,43.47,1.975,100.270
2.27,43.48,1.975,100.269
2.27,43.50,1.975,100.268
2.28,43.51,1.975,100.268
2.28,43.53,1.975,100.267
2.28,43.54,1.975,100.266
2.28,43.56,1.975,100.265
2.28,43.57,1.975,100.264
2.28,43.59,1.975,100.264
2.29,43.60,1.975,100.263
2.29,43.62,1.975,100.262
2.29,43.63,1.975,100.262
2.29,43.65,1.975,100.261
2.29,43.67,1.975,100.260
2.29,43.68,1.975,100.260
2.29,43.70,1.975,100.259
2.30,43.71,1.975,100.258
2.30,43.73,1.975,100.258
2.30,43.74,1.975,100.257
2.30,43.76,1.975,100.256
2.30,43.77,1.975,100.256
2.31,43.79,1.975,100.255
2.31,43.80,1.975,100.254
2.31,43.82,1.975,100.254
2.31,43.83,1.975,100.253
2.31,43.85,1.975,100.253
2.31,43.86,1.975,100.252
2.31,43.88,1.975,100.251
2.32,43.89,1.975,100.251
2.32,43.91,1.975,100.250
2.32,43.92,1.975,100.250
2.32,43.94,1.975,100.250
2.32,43.96,1.975,100.249
2.33,43.97,1.975,100.249
2.33,43.99,1.975,100.248
2.33,44.00,1.975,100.248
2.33,44.02,1.975,100.248
2.33,44.03,1.975,100.248
2.33,44.05,1.975,100.247
2.34,44.07,1.975,100.247
2.34,44.08,1.975,100.246
2.34,44.10,1.975,100.246
2.34,44.11,1.975,100.245
2.34,44.13,1.975,100.245
2.34,44.15,1.975,100.245
2.34,44.16,1.975,100.244
2.35,44.18,1.975,100.244
2.35,44.20,1.975,100.243
2.35,44.21,1.975,100.243
2.35,44.23,1.975,100.242
2.35,44.25,1.975,100.242
2.36,44.26,1.975,100.241
2.36,44.28,1.975,100.241
2.36,44.30,1.975,100.241
2.36,44.31,1.975,100.241
2.36,44.33,1.975,100.240
2.36,44.35,1.975,100.240
2.36,44.37,1.975,100.240
2.37,44.38,1.975,100.239
2.37,44.40,1.975,100.239
2.37,44.42,1.975,100.239
2.37,44.44,1.975,100.238
2.37,44.45,1.975,100.238
2.38,44.47,1.975,100.238
2.38,44.49,1.975,100.237
2.38,44.51,1.975,100.237
2.38,44.52,1.975,100.237
2.38,44.54,1.975,100.236
2.38,44.56,1.975,100.236
2.39,44.58,1.975,100.236
2.39,44.60,1.975,100.236
2.39,44.61,1.975,100.236
2.39,44.63,1.975,100.235
2.39,44.65,1.975,100.235
2.39,44.67,1.975,100.235
2.39,44.69,1.975,100.235
2.40,44.71,1.975,100.235
2.40,44.73,1.975,100.234
2.40,44.74,1.975,100.234
2.40,44.76,1.975,100.234
2.40,44.78,1.975,100.234
2.41,44.80,1.975,100.233
2.41,44.82,1.975,100.233
2.41,44.84,1.975,100.233
2.41,44.86,1.975,100.232
2.41,44.88,1.975,100.232
2.41,44.89,1.975,100.232
2.41,44.91,1.975,100.231
2.42,44.93,1.975,100.231
2.42,44.95,1.975,100.231
2.42,44.97,1.975,100.230
2.42,44.99,1.975,100.230
2.42,45.01,1.975,100.230
2.43,45.03,1.975,100.229
2.43,45.05,1.975,100.229
2.43,45.07,1.975,100.229
2.43,45.08,1.975,100.228
2.43,45.10,1.975,100.228
2.43,45.12,1.975,100.228
2.44,45.14,1.975,100.227
2.44,45.16,1.974,100.227
2.44,45.18,1.974,100.226
2.44,45.20,1.974,100.226
2.44,45.22,1.974,100.225
2.44,45.24,1.974,100.225
2.44,45.26,1.974,100.225
2.45,45.28,1.974,100.224
2.45,45.29,1.974,100.224
2.45,45.31,1.974,100.223
2.45,45.33,1.974,100.223
2.45,45.35,1.974,100.222
2.46,45.37,1.974,100.222
2.46,45.39,1.974,100.221
2.46,45.41,1.974,100.221
2.46,45.43,1.974,100.220
2.46,45.44,1.974,100.220
2.46,45.46,1.974,100.219
2.46,45.48,1.974,100.218
2.47,45.50,1.974,100.218
2.47,45.52,1.974,100.217
2.47,45.54,1.974,100.217
2.47,45.56,1.974,100.216
2.47,45.57,1.974,100.216
2.48,45.59,1.974,100.215
2.48,45.61,1.974,100.215
2.48,45.63,1.974,100.214
2.48,45.65,1.974,100.214
2.48,45.67,1.974,100.213
2.48,45.68,1.974,100.213
2.49,45.70,1.974,100.212
2.49,45.72,1.974,100.211
2.49,45.74,1.974,100.211
2.49,45.75,1.974,100.210
2.49,45.77,1.974,100.210
2.49,45.79,1.974,100.209
2.49,45.81,1.974,100.208
2.50,45.83,1.974,100.208
2.50,45.84,1.974,100.207
2.50,45.86,1.974,100.206
2.50,45.88,1.974,100.206
2.50,45.90,1.974,100.205
2.51,45.91,1.974,100.204
2.51,45.93,1.974,100.204
2.51,45.95,1.974,100.203
2.51,45.96,1.974,100.202
2.51,45.98,1.974,100.202
2.51,46.00,1.974,100.201
2.51,46.02,1.974,100.200
2.52,46.03,1.974,100.200
2.52,46.05,1.974,100.199
2.52,46.07,1.974,100.199
2.52,46.08,1.974,100.198
2.52,46.10,1.974,100.197
2.53,46.12,1.974,100.197
2.53,46.13,1.974,100.196
2.53,46.15,1.974,100.195
2.53,46.16,1.974,100.195
2.53,46.18,1.974,100.194
2.53,46.20,1.974,100.193
2.54,46.21,1.974,100.193
2.54,46.23,1.974,100.192
2.54,46.25,1.974,100.191
2.54,46.26,1.974,100.191
2.54,46.28,1.974,100.190
2.54,46.29,1.974,100.189
2.54,46.31,1.974,100.189
2.55,46.32,1.974,100.188
2.55,46.34,1.974,100.187
2.55,46.36,1.974,100.186
2.55,46.37,1.974,100.186
2.55,46.39,1.974,100.185
2.56,46.40,1.974,100.184
2.56,46.42,1.974,100.184
2.56,46.43,1.974,100.183
2.56,46.45,1.974,100.182
2.56,46.46,1.974,100.182
2.56,46.48,1.974,100.181
2.56,46.50,1.974,100.180
2.57,46.51,1.974,100.180
2.57,46.53,1.974,100.179
2.57,46.54,1.974,100.178
2.57,46.56,1.974,100.177
2.57,46.57,1.974,100.177
2.58,46.59,1.973,100.176
2.58,46.60,1.973,100.175
2.58,46.62,1.973,100.175
2.58,46.63,1.973,100.174
2.58,46.65,1.973,100.173
2.58,46.66,1.973,100.173
2.59,46.68,1.973,100.172
2.59,46.69,1.973,100.171
2.59,46.71,1.973,100.171
2.59,46.72,1.973,100.170
2.59,46.74,1.973,100.169
2.59,46.75,1.973,100.169
2.59,46.77,1.973,100.168
2.60,46.79,1.973,100.168
2.60,46.80,1.973,100.167
2.60,46.82,1.973,100.166
2.60,46.83,1.973,100.166
2.60,46.85,1.973,100.165
2.61,46.86,1.973,100.164
2.61,46.88,1.973,100.164
2.61,46.89,1.973,100.163
2.61,46.91,1.973,100.163
2.61,46.93,1.973,100.162
2.61,46.94,1.973,100.162
2.61,46.96,1.973,100.161
2.62,46.97,1.973,100.161
2.62,46.99,1.973,100.160
2.62,47.00,1.973,100.160
2.62,47.02,1.973,100.159
2.62,47.04,1.973,100.159
2.63,47.05,1.973,100.158
2.63,47.07,1.973,100.158
2.63,47.09,1.973,100.157
2.63,47.10,1.973,100.157
2.63,47.12,1.973,100.156
2.63,47.13,1.973,100.156
2.64,47.15,1.973,100.155
2.64,47.17,1.973,100.155
2.64,47.18,1.973,100.154
2.64,47.20,1.973,100.154
2.64,47.22,1.973,100.154
2.64,47.24,1.973,100.153
2.64,47.25,1.973,100.153
2.65,47.27,1.973,100.152
2.65,47.29,1.973,100.152
2.65,47.30,1.973,100.152
2.65,47.32,1.973,100.151
2.65,47.34,1.973,100.151
2.66,47.36,1.973,100.151
2.66,47.37,1.973,100.150
2.66,47.39,1.973,100.150
2.66,47.41,1.973,100.150
2.66,47.43,1.973,100.149
2.66,47.45,1.973,100.149
2.66,47.46,1.973,100.149
2.67,47.48,1.973,100.148
2.67,47.50,1.973,100.148
2.67,47.52,1.973,100.148
2.67,47.54,1.973,100.147
2.67,47.55,1.973,100.147
2.68,47.57,1.973,100.147
2.68,47.59,1.973,100.147
2.68,47.61,1.973,100.146
2.68,47.63,1.973,100.146
2.68,47.65,1.973,100.146
2.68,47.67,1.973,100.145
2.69,47.68,1.973,100.145
2.69,47.70,1.973,100.145
2.69,47.72,1.973,100.144
2.69,47.74,1.973,100.144
2.69,47.76,1.973,100.144
2.69,47.78,1.973,100.143
2.69,47.80,1.973,100.143
2.70,47.82,1.973,100.143
2.70,47.83,1.973,100.143
2.70,47.85,1.973,100.142
2.70,47.87,1.973,100.142
2.70,47.89,1.973,100.141
2.71,47.91,1.973,100.141
2.71,47.93,1.973,100.141
2.71,47.95,1.973,100.140
2.71,47.97,1.973,100.140
2.71,47.99,1.973,100.139
2.71,48.01,1.973,100.139
2.71,48.02,1.973,100.139
2.72,48.04,1.973,100.138
2.72,48.06,1.973,100.138
2.72,48.08,1.973,100.137
2.72,48.10,1.973,100.137
2.72,48.12,1.973,100.136
2.73,48.14,1.973,100.136
2.73,48.16,1.973,100.136
2.73,48.18,1.973,100.135
2.73,48.20,1.973,100.134
2.73,48.21,1.973,100.134
2.73,48.23,1.973,100.133
2.74,48.25,1.973,100.133
2.74,48.27,1.973,100.132
2.74,48.29,1.973,100.132
2.74,48.31,1.973,100.131
2.74,48.33,1.973,100.131
2.74,48.35,1.973,100.130
2.74,48.36,1.973,100.130
2.75,48.38,1.973,100.129
2.75,48.40,1.973,100.129
2.75,48.42,1.973,100.128
2.75,48.44,1.973,100.128
2.75,48.46,1.973,100.127
2.76,48.48,1.973,100.126
2.76,48.49,1.973,100.126
2.76,48.51,1.972,100.125
2.76,48.53,1.972,100.124
2.76,48.55,1.972,100.124
2.76,48.57,1.972,100.123
2.76,48.58,1.972,100.123
2.77,48.60,1.972,100.122
2.77,48.62,1.972,100.122
2.77,48.64,1.972,100.121
2.77,48.66,1.972,100.120
2.77,48.67,1.972,100.120
2.78,48.69,1.972,100.119
2.78,48.71,1.972,100.119
2.78,48.73,1.972,100.118
2.78,48.74,1.972,100.118
2.78,48.76,1.972,100.117
2.78,48.78,1.972,100.116
2.79,48.80,1.972,100.116
2.79,48.81,1.972,100.115
2.79,48.83,1.972,100.114
2.79,48.85,1.972,100.114
2.79,48.87,1.972,100.113
2.79,48.88,1.972,100.112
2.79,48.90,1.972,100.112
2.80,48.92,1.972,100.111
2.80,48.93,1.972,100.110
2.80,48.95,1.972,100.109
2.80,48.97,1.972,100.109
2.80,48.98,1.972,100.108
2.81,49.00,1.972,100.107
2.81,49.02,1.972,100.107
2.81,49.03,1.972,100.106
2.81,49.05,1.972,100.106
2.81,49.07,1.972,100.105
2.81,49.08,1.972,100.104
2.81,49.10,1.972,100.104
2.82,49.11,1.972,100.103
2.82,49.13,1.972,100.102
2.82,49.15,1.972,100.102
2.82,49.16,1.972,100.101
2.82,49.18,1.972,100.100
2.83,49.19,1.972,100.099
2.83,49.21,1.972,100.099
2.83,49.23,1.972,100.098
2.83,49.24,1.972,100.097
2.83,49.26,1.972,100.097
2.83,49.27,1.972,100.096
2.84,49.29,1.972,100.095
2.84,49.30,1.972,100.094
2.84,49.32,1.972,100.094
2.84,49.33,1.972,100.093
2.84,49.35,1.972,100.092
2.84,49.36,1.972,100.092
2.84,49.38,1.972,100.091
2.85,49.40,1.972,100.090
2.85,49.41,1.972,100.090
2.85,49.43,1.972,100.089
2.85,49.44,1.972,100.088
2.85,49.46,1.972,100.088
2.86,49.47,1.972,100.087
2.86,49.49,1.972,100.086
2.86,49.50,1.972,100.086
2.86,49.52,1.972,100.085
2.86,49.53,1.972,100.084
2.86,49.55,1.972,100.084
2.86,49.56,1.972,100.083
2.87,49.58,1.972,100.082
2.87,49.59,1.972,100.082
2.87,49.61,1.972,100.081
2.87,49.62,1.972,100.081
2.87,49.64,1.972,100.080
2.88,49.65,1.972,100.079
2.88,49.67,1.972,100.079
2.88,49.68,1.972,100.078
2.88,49.70,1.972,100.077
2.88,49.71,1.972,100.076
2.88,49.73,1.972,100.075
2.89,49.75,1.971,100.075
2.89,49.76,1.971,100.074
2.89,49.78,1.971,100.073
2.89,49.79,1.971,100.072
2.89,49.81,1.971,100.072
2.89,49.82,1.971,100.071
2.89,49.84,1.971,100.071
2.90,49.85,1.971,100.070
2.90,49.87,1.971,100.070
2.90,49.89,1.971,100.069
2.90,49.90,1.971,100.068
2.90,49.92,1.971,100.068
2.91,49.93,1.971,100.067
2.91,49.95,1.971,100.067
2.91,49.97,1.971,100.066
2.91,49.98,1.971,100.066
2.91,50.00,1.971,100.066
2.91,50.02,1.971,100.066
2.91,50.03,1.971,100.066
2.92,50.05,1.971,100.066
2.92,50.07,1.971,100.066
2.92,50.08,1.971,100.066
2.92,50.10,1.971,100.066
2.92,50.12,1.971,100.065
2.93,50.13,1.971,100.064
2.93,50.15,1.971,100.064
2.93,50.17,1.971,100.063
2.93,50.18,1.971,100.063
2.93,50.20,1.971,100.062
2.93,50.22,1.971,100.062
2.94,50.24,1.971,100.061
2.94,50.25,1.971,100.061
2.94,50.27,1.971,100.061
2.94,50.29,1.971,100.060
2.94,50.31,1.971,100.060
2.94,50.32,1.971,100.059
2.94,50.34,1.971,100.059
2.95,50.36,1.971,100.059
2.95,50.38,1.971,100.058
2.95,50.40,1.971,100.058
2.95,50.42,1.971,100.058
2.95,50.43,1.971,100.057
2.96,50.45,1.971,100.057
2.96,50.47,1.971,100.056
2.96,50.49,1.971,100.056
2.96,50.51,1.971,100.056
2.96,50.53,1.971,100.055
2.96,50.54,1.971,100.055
2.96,50.56,1.971,100.055
2.97,50.58,1.971,100.054
2.97,50.60,1.971,100.054
2.97,50.62,1.971,100.054
2.97,50.64,1.971,100.053
2.97,50.66,1.971,100.053
2.98,50.67,1.971,100.053
2.98,50.69,1.971,100.052
2.98,50.71,1.971,100.052
2.98,50.73,1.971,100.052
2.98,50.75,1.971,100.051
2.98,50.77,1.971,100.051
2.99,50.79,1.971,100.051
2.99,50.81,1.971,100.050
2.99,50.83,1.971,100.050
2.99,50.84,1.971,100.050
2.99,50.86,1.971,100.049
2.99,50.88,1.971,100.049
2.99,50.90,1.971,100.048
3.00,50.92,1.971,100.048
3.00,50.94,1.971,100.047
3.00,50.96,1.971,100.047
3.00,50.98,1.971,100.046
3.00,51.00,1.971,100.046
3.01,51.02,1.971,100.045
3.01,51.03,1.971,100.045
3.01,51.05,1.971,100.044
3.01,51.07,1.971,100.043
3.01,51.09,1.971,100.043
3.01,51.11,1.971,100.042
3.01,51.13,1.971,100.042
3.02,51.15,1.971,100.041
3.02,51.17,1.971,100.041
3.02,51.18,1.971,100.040
3.02,51.20,1.971,100.039
3.02,51.22,1.971,100.039
3.03,51.24,1.971,100.038
3.03,51.26,1.971,100.038
3.03,51.28,1.971,100.037
3.03,51.30,1.971,100.036
3.03,51.31,1.971,100.036
3.03,51.33,1.971,100.035
3.04,51.35,1.971,100.035
3.04,51.37,1.971,100.034
3.04,51.39,1.971,100.033
3.04,51.41,1.971,100.033
3.04,51.42,1.971,100.032
3.04,51.44,1.971,100.031
3.04,51.46,1.971,100.030
3.05,51.48,1.971,100.030
3.05,51.50,1.971,100.029
3.05,51.51,1.971,100.028
3.05,51.53,1.971,100.028
3.05,51.55,1.971,100.027
3.06,51.57,1.971,100.026
3.06,51.59,1.971,100.026
3.06,51.60,1.971,100.025
3.06,51.62,1.971,100.025
3.06,51.64,1.971,100.024
3.06,51.65,1.970,100.024
3.06,51.67,1.970,100.023
3.07,51.69,1.970,100.022
3.07,51.71,1.970,100.022
3.07,51.72,1.970,100.021
3.07,51.74,1.970,100.020
3.07,51.76,1.970,100.020
3.08,51.77,1.970,100.019
3.08,51.79,1.970,100.018
3.08,51.81,1.970,100.017
3.08,51.82,1.970,100.017
3.08,51.84,1.970,100.016
3.08,51.86,1.970,100.015
3.09,51.87,1.970,100.015
3.09,51.89,1.970,100.014
3.09,51.91,1.970,100.013
3.09,51.92,1.970,100.012
3.09,51.94,1.970,100.012
3.09,51.96,1.970,100.011
3.09,51.97,1.970,100.010
3.10,51.99,1.970,100.010
3.10,52.00,1.970,100.009
3.10,52.02,1.970,100.008
3.10,52.04,1.970,100.008
3.10,52.05,1.970,100.007
3.11,52.07,1.970,100.006
3.11,52.08,1.970,100.005
3.11,52.10,1.970,100.005
3.11,52.11,1.970,100.004
3.11,52.13,1.970,100.003
3.11,52.15,1.970,100.003
3.11,52.16,1.970,100.002
3.12,52.18,1.970,100.001
3.12,52.19,1.970,100.000
3.12,52.21,1.970,100.000
3.12,52.22,1.970,99.999
3.12,52.24,1.970,99.998
3.13,52.25,1.970,99.998
3.13,52.27,1.970,99.997
3.13,52.28,1.970,99.996
3.13,52.30,1.970,99.995
3.13,52.31,1.970,99.995
3.13,52.33,1.970,99.994
3.14,52.35,1.970,99.993
3.14,52.36,1.970,99.993
3.14,52.38,1.970,99.992
3.14,52.39,1.970,99.991
3.14,52.41,1.970,99.990
3.14,52.42,1.970,99.990
3.14,52.44,1.970,99.989
3.15,52.45,1.970,99.988
3.15,52.47,1.970,99.988
3.15,52.48,1.970,99.987
3.15,52.50,1.970,99.986
3.15,52.51,1.970,99.985
3.16,52.53,1.970,99.985
3.16,52.54,1.970,99.984
3.16,52.56,1.970,99.984
3.16,52.57,1.970,99.983
3.16,52.59,1.970,99.982
3.16,52.60,1.970,99.982
3.16,52.62,1.970,99.981
3.17,52.64,1.970,99.980
3.17,52.65,1.970,99.980
3.17,52.67,1.970,99.979
3.17,52.68,1.970,99.979
3.17,52.70,1.970,99.978
3.18,52.71,1.970,99.977
3.18,52.73,1.970,99.977
3.18,52.75,1.970,99.976
3.18,52.76,1.970,99.976
3.18,52.78,1.970,99.975
3.18,52.79,1.970,99.974
3.19,52.81,1.970,99.974
3.19,52.83,1.970,99.973
3.19,52.84,1.969,99.973
3.19,52.86,1.969,99.972
3.19,52.88,1.969,99.972
3.19,52.89,1.969,99.971
3.19,52.91,1.969,99.971
3.20,52.93,1.969,99.970
3.20,52.94,1.969,99.970
3.20,52.96,1.969,99.969
3.20,52.98,1.969,99.969
3.20,52.99,1.969,99.968
3.21,53.01,1.969,99.968
3.21,53.03,1.969,99.967
3.21,53.05,1.969,99.967
3.21,53.06,1.969,99.966
3.21,53.08,1.969,99.966
3.21,53.10,1.969,99.965
3.21,53.12,1.969,99.965
3.22,53.13,1.969,99.964
3.22,53.15,1.969,99.964
3.22,53.17,1.969,99.964
3.22,53.19,1.969,99.963
3.22,53.21,1.969,99.963
3.23,53.22,1.969,99.963
3.23,53.24,1.969,99.962
3.23,53.26,1.969,99.962
3.23,53.28,1.969,99.962
3.23,53.30,1.969,99.961
3.23,53.32,1.969,99.961
3.24,53.33,1.969,99.961
3.24,53.35,1.969,99.960
3.24,53.37,1.969,99.960
3.24,53.39,1.969,99.960
3.24,53.41,1.969,99.959
3.24,53.43,1.969,99.959
3.24,53.44,1.969,99.959
3.25,53.46,1.969,99.958
3.25,53.48,1.969,99.958
3.25,53.50,1.969,99.958
3.25,53.52,1.969,99.957
3.25,53.54,1.969,99.957
3.26,53.56,1.969,99.957
3.26,53.58,1.969,99.956
3.26,53.60,1.969,99.956
3.26,53.61,1.969,99.955
3.26,53.63,1.969,99.955
3.26,53.65,1.969,99.954
3.26,53.67,1.969,99.954
3.27,53.69,1.969,99.954
3.27,53.71,1.969,99.953
3.27,53.73,1.969,99.953
3.27,53.75,1.969,99.952
3.27,53.77,1.969,99.952
3.28,53.79,1.969,99.951
3.28,53.80,1.969,99.951
3.28,53.82,1.969,99.950
3.28,53.84,1.969,99.950
3.28,53.86,1.969,99.949
3.28,53.88,1.969,99.949
3.29,53.90,1.969,99.948
3.29,53.92,1.969,99.948
3.29,53.94,1.969,99.947
3.29,53.96,1.969,99.946
3.29,53.97,1.969,99.946
3.29,53.99,1.969,99.945
3.29,54.01,1.969,99.945
3.30,54.03,1.969,99.944
3.30,54.05,1.969,99.943
3.30,54.07,1.969,99.943
3.30,54.09,1.969,99.942
3.30,54.11,1.969,99.942
3.31,54.12,1.969,99.941
3.31,54.14,1.969,99.941
3.31,54.16,1.969,99.940
3.31,54.18,1.969,99.940
3.31,54.20,1.969,99.939
3.31,54.22,1.969,99.938
3.31,54.23,1.969,99.938
3.32,54.25,1.969,99.937
3.32,54.27,1.969,99.937
3.32,54.29,1.969,99.936
3.32,54.31,1.969,99.935
3.32,54.32,1.969,99.935
3.33,54.34,1.969,99.934
3.33,54.36,1.969,99.933
3.33,54.38,1.969,99.933
3.33,54.40,1.969,99.932
3.33,54.41,1.969,99.931
3.33,54.43,1.969,99.931
3.34,54.45,1.969,99.930
3.34,54.47,1.969,99.929
3.34,54.48,1.969,99.929
3.34,54.50,1.969,99.928
3.34,54.52,1.969,99.927
3.34,54.54,1.969,99.927
3.34,54.55,1.969,99.926
3.35,54.57,1.969,99.925
3.35,54.59,1.969,99.925
3.35,54.60,1.969,99.924
3.35,54.62,1.969,99.923
3.35,54.64,1.969,99.923
3.36,54.65,1.968,99.922
3.36,54.67,1.968,99.921
3.36,54.69,1.968,99.921
3.36,54.70,1.968,99.920
3.36,54.72,1.968,99.919
3.36,54.74,1.968,99.919
3.36,54.75,1.968,99.918
3.37,54.77,1.968,99.917
3.37,54.78,1.968,99.917
3.37,54.80,1.968,99.916
3.37,54.82,1.968,99.915
3.37,54.83,1.968,99.914
3.38,54.85,1.968,99.914
3.38,54.86,1.968,99.913
3.38,54.88,1.968,99.912
3.38,54.90,1.968,99.912
3.38,54.91,1.968,99.911
3.38,54.93,1.968,99.911
3.39,54.94,1.968,99.910
3.39,54.96,1.968,99.909
3.39,54.97,1.968,99.908
3.39,54.99,1.968,99.908
3.39,55.00,1.968,99.907
3.39,55.02,1.968,99.906
3.39,55.04,1.968,99.906
3.40,55.05,1.968,99.905
3.40,55.07,1.968,99.904
3.40,55.08,1.968,99.903
3.40,55.10,1.968,99.902
3.40,55.11,1.968,99.902
3.41,55.13,1.968,99.901
3.41,55.14,1.968,99.900
3.41,55.16,1.968,99.899
3.41,55.17,1.968,99.899
3.41,55.19,1.968,99.898
3.41,55.20,1.968,99.897
3.41,55.22,1.968,99.896
3.42,55.23,1.968,99.896
3.42,55.25,1.968,99.895
3.42,55.26,1.968,99.894
3.42,55.28,1.968,99.893
3.42,55.29,1.968,99.893
3.43,55.31,1.968,99.892
3.43,55.32,1.968,99.891
3.43,55.34,1.968,99.891
3.43,55.35,1.968,99.890
3.43,55.37,1.968,99.889
3.43,55.38,1.968,99.889
3.44,55.40,1.968,99.888
3.44,55.41,1.968,99.887
3.44,55.43,1.968,99.887
3.44,55.44,1.968,99.886
3.44,55.46,1.968,99.885
3.44,55.47,1.968,99.885
3.44,55.49,1.968,99.884
3.45,55.51,1.968,99.884
3.45,55.52,1.968,99.883
3.45,55.54,1.968,99.883
3.45,55.55,1.968,99.882
3.45,55.57,1.968,99.881
3.46,55.58,1.968,99.881
3.46,55.60,1.968,99.880
3.46,55.62,1.968,99.880
3.46,55.63,1.968,99.879
3.46,55.65,1.968,99.878
3.46,55.67,1.968,99.878
3.46,55.68,1.968,99.877
3.47,55.70,1.968,99.877
3.47,55.71,1.968,99.876
3.47,55.73,1.968,99.876
3.47,55.75,1.968,99.875
3.47,55.76,1.968,99.875
3.48,55.78,1.968,99.874
3.48,55.80,1.968,99.874
3.48,55.81,1.968,99.873
3.48,55.83,1.968,99.873
3.48,55.85,1.968,99.873
3.48,55.87,1.968,99.872
3.49,55.88,1.968,99.872
3.49,55.90,1.967,99.871
3.49,55.92,1.967,99.871
3.49,55.94,1.967,99.870
3.49,55.95,1.967,99.870
3.49,55.97,1.967,99.870
3.49,55.99,1.967,99.869
3.50,56.01,1.967,99.869
3.50,56.02,1.967,99.869
3.50,56.04,1.967,99.868
3.50,56.06,1.967,99.868
3.50,56.08,1.967,99.868
3.51,56.10,1.967,99.867
3.51,56.12,1.967,99.867
3.51,56.13,1.967,99.867
3.51,56.15,1.967,99.866
3.51,56.17,1.967,99.866
3.51,56.19,1.967,99.865
3.51,56.21,1.967,99.865
3.52,56.23,1.967,99.865
3.52,56.24,1.967,99.864
3.52,56.26,1.967,99.864
3.52,56.28,1.967,99.864
3.52,56.30,1.967,99.863
3.53,56.32,1.967,99.863
3.53,56.34,1.967,99.863
3.53,56.36,1.967,99.862
3.53,56.38,1.967,99.862
3.53,56.39,1.967,99.861
3.53,56.41,1.967,99.861
3.54,56.43,1.967,99.861
3.54,56.45,1.967,99.860
3.54,56.47,1.967,99.860
3.54,56.49,1.967,99.859
3.54,56.51,1.967,99.859
3.54,56.53,1.967,99.858
3.54,56.55,1.967,99.858
3.55,56.57,1.967,99.857
3.55,56.58,1.967,99.857
3.55,56.60,1.967,99.856
3.55,56.62,1.967,99.856
3.55,56.64,1.967,99.855
3.56,56.66,1.967,99.855
3.56,56.68,1.967,99.854
3.56,56.70,1.967,99.854
3.56,56.72,1.967,99.853
3.56,56.74,1.967,99.853
3.56,56.76,1.967,99.852
3.56,56.77,1.967,99.851
3.57,56.79,1.967,99.851
3.57,56.81,1.967,99.850
3.57,56.83,1.967,99.849
3.57,56.85,1.967,99.849
3.57,56.87,1.967,99.848
3.58,56.89,1.967,99.848
3.58,56.91,1.967,99.847
3.58,56.92,1.967,99.846
3.58,56.94,1.967,99.846
3.58,56.96,1.967,99.845
3.58,56.98,1.967,99.844
3.59,57.00,1.967,99.844
3.59,57.02,1.967,99.843
3.59,57.03,1.967,99.842
3.59,57.05,1.967,99.842
3.59,57.07,1.967,99.841
3.59,57.09,1.967,99.841
3.59,57.11,1.967,99.840
3.60,57.13,1.967,99.839
3.60,57.14,1.967,99.839
3.60,57.16,1.967,99.838
3.60,57.18,1.967,99.838
3.60,57.20,1.967,99.837
3.61,57.21,1.967,99.837
3.61,57.23,1.967,99.836
3.61,57.25,1.967,99.835
3.61,57.27,1.967,99.835
3.61,57.29,1.967,99.834
3.61,57.30,1.967,99.833
3.61,57.32,1.967,99.832
3.62,57.34,1.967,99.832
3.62,57.35,1.967,99.831
3.62,57.37,1.967,99.830
3.62,57.39,1.967,99.829
3.62,57.41,1.967,99.829
3.63,57.42,1.967,99.828
3.63,57.44,1.967,99.827
3.63,57.46,1.967,99.826
3.63,57.47,1.967,99.826
3.63,57.49,1.967,99.825
3.63,57.51,1.967,99.824
3.64,57.52,1.967,99.824
3.64,57.54,1.967,99.823
3.64,57.56,1.967,99.822
3.64,57.57,1.967,99.821
3.64,57.59,1.966,99.820
3.64,57.60,1.966,99.820
3.64,57.62,1.966,99.819
3.65,57.64,1.966,99.818
3.65,57.65,1.966,99.817
3.65,57.67,1.966,99.817
3.65,57.68,1.966,99.816
3.65,57.70,1.966,99.815
3.66,57.71,1.966,99.814
3.66,57.73,1.966,99.814
3.66,57.75,1.966,99.813
3.66,57.76,1.966,99.812
3.66,57.78,1.966,99.811
3.66,57.79,1.966,99.811
3.66,57.81,1.966,99.810
3.67,57.82,1.966,99.809
3.67,57.84,1.966,99.808
3.67,57.85,1.966,99.807
3.67,57.87,1.966,99.807
3.67,57.88,1.966,99.806
3.68,57.90,1.966,99.805
3.68,57.91,1.966,99.804
3.68,57.93,1.966,99.803
3.68,57.94,1.966,99.803
3.68,57.96,1.966,99.802
3.68,57.97,1.966,99.801
3.69,57.99,1.966,99.800
3.69,58.00,1.966,99.800
3.69,58.02,1.966,99.799
3.69,58.03,1.966,99.798
3.69,58.05,1.966,99.797
3.69,58.06,1.966,99.797
3.69,58.08,1.966,99.796
3.70,58.09,1.966,99.795
3.70,58.11,1.966,99.794
3.70,58.12,1.966,99.793
3.70,58.14,1.966,99.793
3.70,58.15,1.966,99.792
3.71,58.17,1.966,99.791
3.71,58.18,1.966,99.790
3.71,58.20,1.966,99.789
3.71,58.21,1.966,99.789
3.71,58.23,1.966,99.788
3.71,58.24,1.966,99.787
3.71,58.26,1.966,99.787
3.72,58.28,1.966,99.786
3.72,58.29,1.966,99.785
3.72,58.31,1.966,99.785
3.72,58.32,1.966,99.784
3.72,58.34,1.966,99.783
3.73,58.35,1.966,99.783
3.73,58.37,1.966,99.782
3.73,58.38,1.966,99.781
3.73,58.40,1.966,99.781
3.73,58.41,1.966,99.780
3.73,58.43,1.966,99.780
3.74,58.45,1.966,99.779
3.74,58.46,1.966,99.779
3.74,58.48,1.966,99.778
3.74,58.50,1.966,99.777
3.74,58.51,1.966,99.777
3.74,58.53,1.966,99.776
3.74,58.54,1.966,99.776
3.75,58.56,1.966,99.775
3.75,58.58,1.966,99.775
3.75,58.59,1.966,99.774
3.75,58.61,1.966,99.773
3.75,58.63,1.966,99.773
3.76,58.64,1.966,99.772
3.76,58.66,1.966,99.772
3.76,58.68,1.966,99.771
3.76,58.70,1.966,99.771
3.76,58.71,1.966,99.770
3.76,58.73,1.965,99.770
3.76,58.75,1.965,99.769
3.77,58.77,1.965,99.769
3.77,58.78,1.965,99.768
3.77,58.80,1.965,99.768
3.77,58.82,1.965,99.767
3.77,58.84,1.965,99.767
3.78,58.85,1.965,99.766
3.78,58.87,1.965,99.766
3.78,58.89,1.965,99.765
3.78,58.91,1.965,99.765
3.78,58.93,1.965,99.765
3.78,58.94,1.965,99.764
3.79,58.96,1.965,99.764
3.79,58.98,1.965,99.763
3.79,59.00,1.965,99.763
3.79,59.02,1.965,99.763
3.79,59.04,1.965,99.762
3.79,59.06,1.965,99.762
3.79,59.07,1.965,99.762
3.80,59.09,1.965,99.761
3.80,59.11,1.965,99.761
3.80,59.13,1.965,99.760
3.80,59.15,1.965,99.760
3.80,59.17,1.965,99.760
3.81,59.19,1.965,99.759
3.81,59.21,1.965,99.759
3.81,59.22,1.965,99.758
3.81,59.24,1.965,99.758
3.81,59.26,1.965,99.758
3.81,59.28,1.965,99.757
3.81,59.30,1.965,99.757
3.82,59.32,1.965,99.756
3.82,59.34,1.965,99.756
3.82,59.36,1.965,99.755
3.82,59.38,1.965,99.755
3.82,59.40,1.965,99.754
3.83,59.41,1.965,99.754
3.83,59.43,1.965,99.753
3.83,59.45,1.965,99.753
3.83,59.47,1.965,99.752
3.83,59.49,1.965,99.752
3.83,59.51,1.965,99.751
3.84,59.53,1.965,99.751
3.84,59.55,1.965,99.750
3.84,59.57,1.965,99.750
3.84,59.58,1.965,99.749
3.84,59.60,1.965,99.749
3.84,59.62,1.965,99.748
3.84,59.64,1.965,99.748
3.85,59.66,1.965,99.747
3.85,59.68,1.965,99.747
3.85,59.70,1.965,99.746
3.85,59.72,1.965,99.745
3.85,59.73,1.965,99.745
3.86,59.75,1.965,99.744
3.86,59.77,1.965,99.743
3.86,59.79,1.965,99.743
3.86,59.81,1.965,99.742
3.86,59.83,1.965,99.742
3.86,59.85,1.965,99.741
3.86,59.86,1.965,99.740
3.87,59.88,1.965,99.740
3.87,59.90,1.965,99.739
3.87,59.92,1.965,99.739
3.87,59.94,1.965,99.738
3.87,59.95,1.965,99.737
3.88,59.97,1.965,99.737
3.88,59.99,1.965,99.736
3.88,60.01,1.965,99.735
3.88,60.03,1.965,99.735
3.88,60.04,1.965,99.734
3.88,60.06,1.965,99.733
3.89,60.08,1.965,99.733
3.89,60.10,1.965,99.732
3.89,60.11,1.965,99.731
3.89,60.13,1.965,99.731
3.89,60.15,1.965,99.730
3.89,60.17,1.965,99.729
3.89,60.18,1.965,99.729
3.90,60.20,1.965,99.728
3.90,60.22,1.965,99.727
3.90,60.23,1.965,99.727
3.90,60.25,1.965,99.726
3.90,60.27,1.965,99.725
3.91,60.28,1.965,99.724
3.91,60.30,1.965,99.724
3.91,60.32,1.965,99.723
3.91,60.33,1.965,99.722
3.91,60.35,1.965,99.721
3.91,60.37,1.965,99.721
3.91,60.38,1.965,99.720
3.92,60.40,1.964,99.719
3.92,60.42,1.964,99.718
3.92,60.43,1.964,99.718
3.92,60.45,1.964,99.717
3.92,60.46,1.964,99.716
3.93,60.48,1.964,99.715
3.93,60.49,1.964,99.714
3.93,60.51,1.964,99.714
3.93,60.53,1.964,99.713
3.93,60.54,1.964,99.712
3.93,60.56,1.964,99.711
3.94,60.57,1.964,99.711
3.94,60.59,1.964,99.710
3.94,60.60,1.964,99.709
3.94,60.62,1.964,99.708
3.94,60.63,1.964,99.708
3.94,60.65,1.964,99.707
3.94,60.67,1.964,99.706
3.95,60.68,1.964,99.705
3.95,60.70,1.964,99.704
3.95,60.71,1.964,99.703
3.95,60.73,1.964,99.703
3.95,60.74,1.964,99.702
3.96,60.76,1.964,99.701
3.96,60.77,1.964,99.700
3.96,60.79,1.964,99.699
3.96,60.80,1.964,99.699
3.96,60.82,1.964,99.698
3.96,60.83,1.964,99.697
3.96,60.85,1.964,99.696
3.97,60.86,1.964,99.695
3.97,60.88,1.964,99.695
3.97,60.89,1.964,99.694
3.97,60.91,1.964,99.693
3.97,60.92,1.964,99.692
3.98,60.94,1.964,99.691
3.98,60.95,1.964,99.691
3.98,60.97,1.964,99.690
3.98,60.98,1.964,99.689
3.98,61.00,1.964,99.689
3.98,61.01,1.964,99.688
3.99,61.03,1.964,99.687
3.99,61.04,1.964,99.686
3.99,61.06,1.964,99.686
3.99,61.07,1.964,99.685
3.99,61.09,1.964,99.684
3.99,61.10,1.964,99.684
3.99,61.12,1.964,99.683
4.00,61.14,1.964,99.682
4.00,61.15,1.964,99.682
4.00,61.17,1.964,99.681
4.00,61.18,1.964,99.680
4.00,61.20,1.964,99.680
4.01,61.21,1.964,99.679
4.01,61.23,1.964,99.678
4.01,61.25,1.964,99.678
4.01,61.26,1.964,99.677
4.01,61.28,1.964,99.676
4.01,61.29,1.964,99.676
4.01,61.31,1.964,99.675
4.02,61.33,1.964,99.675
4.02,61.34,1.964,99.674
4.02,61.36,1.964,99.673
4.02,61.38,1.964,99.673
4.02,61.39,1.964,99.672
4.03,61.41,1.964,99.672
4.03,61.43,1.964,99.671
4.03,61.45,1.964,99.671
4.03,61.46,1.964,99.670
4.03,61.48,1.964,99.670
4.03,61.50,1.964,99.669
4.04,61.51,1.964,99.669
4.04,61.53,1.963,99.668
4.04,61.55,1.963,99.668
4.04,61.57,1.963,99.668
4.04,61.58,1.963,99.667
4.04,61.60,1.963,99.667
4.04,61.62,1.963,99.666
4.05,61.64,1.963,99.666
4.05,61.66,1.963,99.665
4.05,61.67,1.963,99.665
4.05,61.69,1.963,99.664
4.05,61.71,1.963,99.664
4.06,61.73,1.963,99.663
4.06,61.75,1.963,99.663
4.06,61.77,1.963,99.663
4.06,61.78,1.963,99.662
4.06,61.80,1.963,99.662
4.06,61.82,1.963,99.662
4.06,61.84,1.963,99.661
4.07,61.86,1.963,99.661
4.07,61.88,1.963,99.661
4.07,61.90,1.963,99.660
4.07,61.91,1.963,99.660
4.07,61.93,1.963,99.659
4.08,61.95,1.963,99.659
4.08,61.97,1.963,99.658
4.08,61.99,1.963,99.658
4.08,62.01,1.963,99.658
4.08,62.03,1.963,99.657
4.08,62.05,1.963,99.657
4.09,62.07,1.963,99.656
4.09,62.08,1.963,99.656
4.09,62.10,1.963,99.655
4.09,62.12,1.963,99.655
4.09,62.14,1.963,99.654
4.09,62.16,1.963,99.654
4.09,62.18,1.963,99.653
4.10,62.20,1.963,99.653
4.10,62.22,1.963,99.652
4.10,62.24,1.963,99.652
4.10,62.26,1.963,99.651
4.10,62.27,1.963,99.651
4.11,62.29,1.963,99.650
4.11,62.31,1.963,99.650
4.11,62.33,1.963,99.649
4.11,62.35,1.963,99.648
4.11,62.37,1.963,99.648
4.11,62.39,1.963,99.647
4.11,62.41,1.963,99.647
4.12,62.43,1.963,99.646
4.12,62.44,1.963,99.645
4.12,62.46,1.963,99.645
4.12,62.48,1.963,99.644
4.12,62.50,1.963,99.644
4.13,62.52,1.963,99.643
4.13,62.54,1.963,99.642
4.13,62.56,1.963,99.642
4.13,62.57,1.963,99.641
4.13,62.59,1.963,99.641
4.13,62.61,1.963,99.640
4.14,62.63,1.963,99.639
4.14,62.65,1.963,99.639
4.14,62.67,1.963,99.638
4.14,62.68,1.963,99.637
4.14,62.70,1.963,99.637
4.14,62.72,1.963,99.636
4.14,62.74,1.963,99.635
4.15,62.76,1.963,99.635
4.15,62.77,1.963,99.634
4.15,62.79,1.963,99.633
4.15,62.81,1.963,99.633
4.15,62.83,1.963,99.632
4.16,62.84,1.963,99.631
4.16,62.86,1.963,99.631
4.16,62.88,1.963,99.630
4.16,62.90,1.963,99.629
4.16,62.91,1.963,99.629
4.16,62.93,1.963,99.628
4.16,62.95,1.963,99.627
4.17,62.97,1.963,99.627
4.17,62.98,1.963,99.626
4.17,63.00,1.963,99.625
4.17,63.02,1.963,99.624
4.17,63.03,1.963,99.624
4.18,63.05,1.963,99.623
4.18,63.07,1.963,99.622
4.18,63.08,1.963,99.621
4.18,63.10,1.963,99.621
4.18,63.12,1.963,99.620
4.18,63.13,1.963,99.619
4.19,63.15,1.963,99.618
4.19,63.16,1.962,99.617
4.19,63.18,1.962,99.617
4.19,63.20,1.962,99.616
4.19,63.21,1.962,99.615
4.19,63.23,1.962,99.615
4.19,63.24,1.962,99.614
4.20,63.26,1.962,99.613
4.20,63.28,1.962,99.612
4.20,63.29,1.962,99.611
4.20,63.31,1.962,99.611
4.20,63.32,1.962,99.610
4.21,63.34,1.962,99.609
4.21,63.35,1.962,99.608
4.21,63.37,1.962,99.607
4.21,63.38,1.962,99.606
4.21,63.40,1.962,99.606
4.21,63.41,1.962,99.605
4.21,63.43,1.962,99.604
4.22,63.44,1.962,99.603
4.22,63.46,1.962,99.602
4.22,63.47,1.962,99.601
4.22,63.49,1.962,99.601
4.22,63.50,1.962,99.600
4.23,63.52,1.962,99.599
4.23,63.53,1.962,99.598
4.23,63.55,1.962,99.597
4.23,63.56,1.962,99.597
4.23,63.58,1.962,99.596
4.23,63.59,1.962,99.595
4.24,63.61,1.962,99.594
4.24,63.62,1.962,99.593
4.24,63.64,1.962,99.593
4.24,63.65,1.962,99.592
4.24,63.67,1.962,99.591
4.24,63.68,1.962,99.590
4.24,63.70,1.962,99.589
4.25,63.71,1.962,99.589
4.25,63.73,1.962,99.588
4.25,63.74,1.962,99.587
4.25,63.76,1.962,99.586
4.25,63.78,1.962,99.586
4.26,63.79,1.962,99.585
4.26,63.81,1.962,99.584
4.26,63.82,1.962,99.583
4.26,63.84,1.962,99.582
4.26,63.85,1.962,99.582
4.26,63.87,1.962,99.581
4.26,63.88,1.962,99.580
4.27,63.90,1.962,99.580
4.27,63.91,1.962,99.579
4.27,63.93,1.962,99.579
4.27,63.95,1.962,99.578
4.27,63.96,1.962,99.577
4.28,63.98,1.962,99.577
4.28,63.99,1.962,99.576
4.28,64.01,1.962,99.575
4.28,64.03,1.962,99.575
4.28,64.04,1.962,99.574
4.28,64.06,1.962,99.574
4.29,64.07,1.962,99.573
4.29,64.09,1.962,99.573
4.29,64.11,1.962,99.572
4.29,64.12,1.962,99.572
4.29,64.14,1.962,99.571
4.29,64.16,1.962,99.570
4.30,64.17,1.962,99.570
4.30,64.19,1.962,99.569
4.30,64.21,1.962,99.569
4.30,64.23,1.962,99.568
4.30,64.24,1.962,99.568
4.30,64.26,1.962,99.567
4.30,64.28,1.961,99.567
4.31,64.29,1.961,99.566
4.31,64.31,1.961,99.566
4.31,64.33,1.961,99.565
4.31,64.35,1.961,99.565
4.31,64.37,1.961,99.564
4.31,64.38,1.961,99.564
4.32,64.40,1.961,99.563
4.32,64.42,1.961,99.563
4.32,64.44,1.961,99.562
4.32,64.46,1.961,99.562
4.32,64.47,1.961,99.562
4.33,64.49,1.961,99.561
4.33,64.51,1.961,99.561
4.33,64.53,1.961,99.560
4.33,64.55,1.961,99.560
4.33,64.57,1.961,99.560
4.33,64.58,1.961,99.559
4.34,64.60,1.961,99.559
4.34,64.62,1.961,99.559
4.34,64.64,1.961,99.558
4.34,64.66,1.961,99.558
4.34,64.68,1.961,99.557
4.34,64.70,1.961,99.557
4.35,64.72,1.961,99.557
4.35,64.73,1.961,99.556
4.35,64.75,1.961,99.556
4.35,64.77,1.961,99.555
4.35,64.79,1.961,99.555
4.35,64.81,1.961,99.554
4.35,64.83,1.961,99.554
4.36,64.85,1.961,99.554
4.36,64.87,1.961,99.553
4.36,64.89,1.961,99.553
4.36,64.90,1.961,99.552
4.36,64.92,1.961,99.552
4.36,64.94,1.961,99.551
4.37,64.96,1.961,99.551
4.37,64.98,1.961,99.550
4.37,65.00,1.961,99.550
4.37,65.02,1.961,99.549
4.37,65.04,1.961,99.549
4.38,65.06,1.961,99.548
4.38,65.08,1.961,99.548
4.38,65.09,1.961,99.547
4.38,65.11,1.961,99.547
4.38,65.13,1.961,99.546
4.38,65.15,1.961,99.546
4.39,65.17,1.961,99.545
4.39,65.19,1.961,99.544
4.39,65.21,1.961,99.544
4.39,65.23,1.961,99.543
4.39,65.25,1.961,99.542
4.39,65.26,1.961,99.542
4.40,65.28,1.961,99.541
4.40,65.30,1.961,99.541
4.40,65.32,1.961,99.540
4.40,65.34,1.961,99.539
4.40,65.36,1.961,99.539
4.40,65.37,1.961,99.538
4.40,65.39,1.961,99.537
4.41,65.41,1.961,99.537
4.41,65.43,1.961,99.536
4.41,65.45,1.961,99.535
4.41,65.46,1.961,99.535
4.41,65.48,1.961,99.534
4.41,65.50,1.961,99.533
4.42,65.52,1.961,99.533
4.42,65.54,1.961,99.532
4.42,65.55,1.961,99.531
4.42,65.57,1.961,99.531
4.42,65.59,1.961,99.530
4.43,65.61,1.961,99.529
4.43,65.62,1.961,99.529
4.43,65.64,1.961,99.528
4.43,65.66,1.961,99.527
4.43,65.68,1.961,99.526
4.43,65.69,1.961,99.525
4.44,65.71,1.961,99.525
4.44,65.73,1.961,99.524
4.44,65.74,1.961,99.523
4.44,65.76,1.961,99.522
4.44,65.78,1.961,99.522
4.44,65.79,1.961,99.521
4.45,65.81,1.961,99.520
4.45,65.83,1.961,99.519
4.45,65.84,1.961,99.519
4.45,65.86,1.961,99.518
4.45,65.88,1.961,99.517
4.45,65.89,1.960,99.516
4.45,65.91,1.960,99.515
4.46,65.92,1.960,99.515
4.46,65.94,1.960,99.514
4.46,65.96,1.960,99.513
4.46,65.97,1.960,99.512
4.46,65.99,1.960,99.512
4.46,66.00,1.960,99.511
4.47,66.02,1.960,99.510
4.47,66.03,1.960,99.509
4.47,66.05,1.960,99.508
4.47,66.06,1.960,99.507
4.47,66.08,1.960,99.507
4.48,66.10,1.960,99.506
4.48,66.11,1.960,99.505
4.48,66.13,1.960,99.504
4.48,66.14,1.960,99.504
4.48,66.16,1.960,99.503
4.48,66.17,1.960,99.502
4.49,66.19,1.960,99.501
4.49,66.20,1.960,99.500
4.49,66.22,1.960,99.500
4.49,66.23,1.960,99.499
4.49,66.25,1.960,99.498
4.49,66.26,1.960,99.497
4.50,66.28,1.960,99.497
4.50,66.29,1.960,99.496
4.50,66.31,1.960,99.495
4.50,66.32,1.960,99.494
4.50,66.34,1.960,99.494
4.50,66.35,1.960,99.493
4.50,66.37,1.960,99.492
4.51,66.38,1.960,99.491
4.51,66.40,1.960,99.491
4.51,66.41,1.960,99.490
4.51,66.42,1.960,99.489
4.51,66.44,1.960,99.488
4.51,66.45,1.960,99.488
4.52,66.47,1.960,99.487
4.52,66.48,1.960,99.486
4.52,66.50,1.960,99.485
4.52,66.51,1.960,99.485
4.52,66.53,1.960,99.484
4.53,66.55,1.960,99.483
4.53,66.56,1.960,99.483
4.53,66.58,1.960,99.482
4.53,66.59,1.960,99.481
4.53,66.61,1.960,99.481
4.53,66.62,1.960,99.480
4.54,66.64,1.960,99.479
4.54,66.65,1.960,99.478
4.54,66.67,1.960,99.478
4.54,66.68,1.960,99.477
4.54,66.70,1.960,99.477
4.54,66.72,1.960,99.476
4.55,66.73,1.960,99.476
4.55,66.75,1.960,99.475
4.55,66.76,1.960,99.474
4.55,66.78,1.960,99.474
4.55,66.80,1.960,99.473
4.55,66.81,1.960,99.473
4.55,66.83,1.960,99.472
4.56,66.84,1.960,99.472
4.56,66.86,1.960,99.471
4.56,66.88,1.960,99.471
4.56,66.89,1.960,99.471
4.56,66.91,1.960,99.470
4.56,66.93,1.960,99.470
4.57,66.95,1.960,99.469
4.57,66.96,1.960,99.469
4.57,66.98,1.960,99.468
4.57,67.00,1.960,99.468
4.57,67.01,1.960,99.467
4.58,67.03,1.960,99.467
4.58,67.05,1.960,99.466
4.58,67.07,1.960,99.466
4.58,67.09,1.959,99.465
4.58,67.10,1.959,99.465
4.58,67.12,1.959,99.464
4.59,67.14,1.959,99.464
4.59,67.16,1.959,99.464
4.59,67.17,1.959,99.463
4.59,67.19,1.959,99.463
4.59,67.21,1.959,99.462
4.59,67.23,1.959,99.462
4.60,67.25,1.959,99.461
4.60,67.27,1.959,99.461
4.60,67.28,1.959,99.461
4.60,67.30,1.959,99.460
4.60,67.32,1.959,99.460
4.60,67.34,1.959,99.459
4.60,67.36,1.959,99.459
4.61,67.38,1.959,99.459
4.61,67.40,1.959,99.458
4.61,67.42,1.959,99.458
4.61,67.43,1.959,99.458
4.61,67.45,1.959,99.457
4.61,67.47,1.959,99.457
4.62,67.49,1.959,99.456
4.62,67.51,1.959,99.456
4.62,67.53,1.959,99.455
4.62,67.55,1.959,99.455
4.62,67.57,1.959,99.454
4.63,67.59,1.959,99.454
4.63,67.60,1.959,99.454
4.63,67.62,1.959,99.453
4.63,67.64,1.959,99.453
4.63,67.66,1.959,99.452
4.63,67.68,1.959,99.452
4.64,67.70,1.959,99.451
4.64,67.72,1.959,99.451
4.64,67.74,1.959,99.451
4.64,67.76,1.959,99.450
4.64,67.78,1.959,99.450
4.64,67.80,1.959,99.449
4.65,67.81,1.959,99.448
4.65,67.83,1.959,99.448
4.65,67.85,1.959,99.447
4.65,67.87,1.959,99.447
4.65,67.89,1.959,99.446
4.65,67.91,1.959,99.446
4.65,67.93,1.959,99.446
4.66,67.95,1.959,99.445
4.66,67.97,1.959,99.445
4.66,67.98,1.959,99.444
4.66,68.00,1.959,99.443
4.66,68.02,1.959,99.443
4.66,68.04,1.959,99.442
4.67,68.06,1.959,99.442
4.67,68.08,1.959,99.441
4.67,68.09,1.959,99.441
4.67,68.11,1.959,99.440
4.67,68.13,1.959,99.439
4.68,68.15,1.959,99.439
4.68,68.17,1.959,99.438
4.68,68.19,1.959,99.438
4.68,68.20,1.959,99.437
4.68,68.22,1.959,99.436
4.68,68.24,1.959,99.436
4.69,68.26,1.959,99.435
4.69,68.28,1.959,99.434
4.69,68.29,1.959,99.434
4.69,68.31,1.959,99.433
4.69,68.33,1.959,99.432
4.69,68.35,1.959,99.432
4.70,68.36,1.959,99.431
4.70,68.38,1.959,99.431
4.70,68.40,1.959,99.430
4.70,68.41,1.959,99.429
4.70,68.43,1.959,99.428
4.70,68.45,1.959,99.428
4.70,68.47,1.959,99.427
4.71,68.48,1.959,99.426
4.71,68.50,1.959,99.426
4.71,68.52,1.959,99.425
4.71,68.53,1.959,99.424
4.71,68.55,1.959,99.423
4.71,68.56,1.959,99.423
4.72,68.58,1.959,99.422
4.72,68.60,1.959,99.421
4.72,68.61,1.959,99.421
4.72,68.63,1.959,99.420
4.72,68.65,1.959,99.419
4.73,68.66,1.959,99.419
4.73,68.68,1.959,99.418
4.73,68.69,1.959,99.417
4.73,68.71,1.959,99.416
4.73,68.73,1.959,99.416
4.73,68.74,1.959,99.415
4.74,68.76,1.958,99.414
4.74,68.77,1.958,99.414
4.74,68.79,1.958,99.413
4.74,68.80,1.958,99.412
4.74,68.82,1.958,99.411
4.74,68.83,1.958,99.411
4.75,68.85,1.958,99.410
4.75,68.86,1.958,99.409
4.75,68.88,1.958,99.408
4.75,68.89,1.958,99.408
4.75,68.91,1.958,99.407
4.75,68.92,1.958,99.406
4.75,68.94,1.958,99.405
4.76,68.95,1.958,99.404
4.76,68.97,1.958,99.404
4.76,68.98,1.958,99.403
4.76,69.00,1.958,99.402
4.76,69.01,1.958,99.401
4.76,69.03,1.958,99.401
4.77,69.04,1.958,99.400
4.77,69.06,1.958,99.399
4.77,69.07,1.958,99.398
4.77,69.09,1.958,99.397
4.77,69.10,1.958,99.397
4.78,69.12,1.958,99.396
4.78,69.13,1.958,99.395
4.78,69.15,1.958,99.394
4.78,69.16,1.958,99.393
4.78,69.18,1.958,99.393
4.78,69.19,1.958,99.392
4.79,69.21,1.958,99.391
4.79,69.22,1.958,99.390
4.79,69.24,1.958,99.390
4.79,69.25,1.958,99.389
4.79,69.27,1.958,99.388
4.79,69.28,1.958,99.388
4.80,69.30,1.958,99.387
4.80,69.31,1.958,99.386
4.80,69.33,1.958,99.386
4.80,69.34,1.958,99.385
4.80,69.36,1.958,99.384
4.80,69.37,1.958,99.384
4.80,69.39,1.958,99.383
4.81,69.40,1.958,99.383
4.81,69.42,1.958,99.382
4.81,69.44,1.958,99.381
4.81,69.45,1.958,99.381
4.81,69.47,1.958,99.380
4.81,69.48,1.958,99.380
4.82,69.50,1.958,99.379
4.82,69.52,1.958,99.379
4.82,69.53,1.958,99.378
4.82,69.55,1.958,99.378
4.82,69.57,1.958,99.377
4.83,69.58,1.958,99.377
4.83,69.60,1.958,99.376
4.83,69.61,1.958,99.376
4.83,69.63,1.958,99.375
4.83,69.65,1.958,99.375
4.83,69.67,1.958,99.374
4.84,69.68,1.958,99.374
4.84,69.70,1.958,99.373
4.84,69.72,1.958,99.373
4.84,69.73,1.958,99.372
4.84,69.75,1.958,99.372
4.84,69.77,1.958,99.371
4.85,69.79,1.958,99.371
4.85,69.80,1.958,99.370
4.85,69.82,1.958,99.370
4.85,69.84,1.958,99.370
4.85,69.86,1.958,99.369
4.85,69.88,1.958,99.369
4.85,69.89,1.958,99.369
4.86,69.91,1.958,99.368
4.86,69.93,1.958,99.368
4.86,69.95,1.958,99.367
4.86,69.97,1.958,99.367
4.86,69.99,1.958,99.367
4.86,70.00,1.958,99.366
4.87,70.02,1.958,99.366
4.87,70.04,1.958,99.366
4.87,70.06,1.958,99.365
4.87,70.08,1.958,99.365
4.87,70.10,1.958,99.365
4.88,70.12,1.958,99.365
4.88,70.13,1.958,99.364
4.88,70.15,1.957,99.364
4.88,70.17,1.957,99.364
4.88,70.19,1.957,99.363
4.88,70.21,1.957,99.363
4.89,70.23,1.957,99.363
4.89,70.25,1.957,99.362
4.89,70.27,1.957,99.362
4.89,70.29,1.957,99.362
4.89,70.31,1.957,99.361
4.89,70.32,1.957,99.361
4.90,70.34,1.957,99.360
4.90,70.36,1.957,99.360
4.90,70.38,1.957,99.359
4.90,70.40,1.957,99.359
4.90,70.42,1.957,99.359
4.90,70.44,1.957,99.358
4.90,70.46,1.957,99.358
4.91,70.48,1.957,99.357
4.91,70.50,1.957,99.357
4.91,70.51,1.957,99.356
4.91,70.53,1.957,99.356
4.91,70.55,1.957,99.355
4.91,70.57,1.957,99.355
4.92,70.59,1.957,99.354
4.92,70.61,1.957,99.354
4.92,70.63,1.957,99.353
4.92,70.65,1.957,99.353
4.92,70.67,1.957,99.352
4.93,70.68,1.957,99.352
4.93,70.70,1.957,99.351
4.93,70.72,1.957,99.351
4.93,70.74,1.957,99.350
4.93,70.76,1.957,99.350
4.93,70.78,1.957,99.349
4.94,70.80,1.957,99.349
4.94,70.81,1.957,99.348
4.94,70.83,1.957,99.347
4.94,70.85,1.957,99.347
4.94,70.87,1.957,99.346
4.94,70.89,1.957,99.346
4.95,70.90,1.957,99.345
4.95,70.92,1.957,99.345
4.95,70.94,1.957,99.344
4.95,70.96,1.957,99.344
4.95,70.98,1.957,99.343
4.95,70.99,1.957,99.342
4.95,71.01,1.957,99.342
4.96,71.03,1.957,99.341
4.96,71.05,1.957,99.341
4.96,71.06,1.957,99.340
4.96,71.08,1.957,99.339
4.96,71.10,1.957,99.339
4.96,71.11,1.957,99.338
4.97,71.13,1.957,99.337
4.97,71.15,1.957,99.337
4.97,71.17,1.957,99.336
4.97,71.18,1.957,99.336
4.97,71.20,1.957,99.335
4.98,71.22,1.957,99.334
4.98,71.23,1.957,99.334
4.98,71.25,1.957,99.333
4.98,71.27,1.957,99.333
4.98,71.28,1.957,99.332
4.98,71.30,1.957,99.331
4.99,71.31,1.957,99.331
4.99,71.33,1.957,99.330
4.99,71.35,1.957,99.329
4.99,71.36,1.957,99.329
4.99,71.38,1.957,99.328
4.99,71.39,1.957,99.327
5.00,71.41,1.957,99.327
5.00,71.42,1.957,99.326
5.00,71.44,1.957,99.325
5.00,71.46,1.957,99.325
5.00,71.47,1.957,99.324
5.00,71.49,1.957,99.323
5.00,71.50,1.957,99.323
5.01,71.52,1.957,99.322
5.01,71.53,1.957,99.321
5.01,71.55,1.957,99.320
5.01,71.56,1.957,99.320
5.01,71.58,1.957,99.319
5.01,71.59,1.957,99.318
5.02,71.61,1.957,99.317
5.02,71.62,1.957,99.317
5.02,71.64,1.957,99.316
5.02,71.65,1.957,99.315
5.02,71.67,1.957,99.315
5.03,71.68,1.957,99.314
5.03,71.70,1.957,99.313
5.03,71.71,1.956,99.313
5.03,71.73,1.956,99.312
5.03,71.74,1.956,99.311
5.03,71.76,1.956,99.310
5.04,71.77,1.956,99.310
5.04,71.79,1.956,99.309
5.04,71.80,1.956,99.308
5.04,71.82,1.956,99.308
5.04,71.83,1.956,99.307
5.04,71.84,1.956,99.306
5.05,71.86,1.956,99.306
5.05,71.87,1.956,99.305
5.05,71.89,1.956,99.304
5.05,71.90,1.956,99.303
5.05,71.92,1.956,99.303
5.05,71.93,1.956,99.302
5.05,71.95,1.956,99.301
5.06,71.96,1.956,99.301
5.06,71.98,1.956,99.300
5.06,71.99,1.956,99.300
5.06,72.01,1.956,99.299
5.06,72.03,1.956,99.299
5.06,72.04,1.956,99.298
5.07,72.06,1.956,99.297
5.07,72.07,1.956,99.297
5.07,72.09,1.956,99.296
5.07,72.10,1.956,99.296
5.07,72.12,1.956,99.295
5.08,72.13,1.956,99.294
5.08,72.15,1.956,99.294
5.08,72.17,1.956,99.293
5.08,72.18,1.956,99.293
5.08,72.20,1.956,99.292
5.08,72.21,1.956,99.292
5.09,72.23,1.956,99.292
5.09,72.25,1.956,99.291
5.09,72.26,1.956,99.291
5.09,72.28,1.956,99.290
5.09,72.30,1.956,99.290
5.09,72.31,1.956,99.289
5.10,72.33,1.956,99.289
5.10,72.35,1.956,99.288
5.10,72.36,1.956,99.288
5.10,72.38,1.956,99.288
5.10,72.40,1.956,99.287
5.10,72.41,1.956,99.287
5.10,72.43,1.956,99.286
5.11,72.45,1.956,99.286
5.11,72.47,1.956,99.286
5.11,72.48,1.956,99.285
5.11,72.50,1.956,99.285
5.11,72.52,1.956,99.284
5.11,72.54,1.956,99.284
5.12,72.56,1.956,99.284
5.12,72.57,1.956,99.283
5.12,72.59,1.956,99.283
5.12,72.61,1.956,99.282
5.12,72.63,1.956,99.282
5.13,72.65,1.956,99.282
5.13,72.67,1.956,99.281
5.13,72.68,1.956,99.281
5.13,72.70,1.956,99.281
5.13,72.72,1.956,99.281
5.13,72.74,1.956,99.280
5.14,72.76,1.956,99.280
5.14,72.78,1.956,99.280
5.14,72.80,1.956,99.280
5.14,72.81,1.956,99.279
5.14,72.83,1.956,99.279
5.14,72.85,1.956,99.279
5.15,72.87,1.956,99.278
5.15,72.89,1.956,99.278
5.15,72.91,1.956,99.278
5.15,72.93,1.956,99.277
5.15,72.95,1.956,99.277
5.15,72.97,1.956,99.276
5.15,72.98,1.956,99.276
5.16,73.00,1.956,99.276
5.16,73.02,1.956,99.275
5.16,73.04,1.956,99.275
5.16,73.06,1.956,99.275
5.16,73.08,1.956,99.274
5.16,73.10,1.956,99.274
5.17,73.12,1.956,99.274
5.17,73.14,1.956,99.273
5.17,73.16,1.956,99.273
5.17,73.18,1.956,99.272
5.17,73.19,1.956,99.272
5.18,73.21,1.956,99.272
5.18,73.23,1.956,99.271
5.18,73.25,1.956,99.271
5.18,73.27,1.956,99.270
5.18,73.29,1.956,99.270
5.18,73.31,1.956,99.269
5.19,73.33,1.956,99.269
5.19,73.35,1.956,99.269
5.19,73.36,1.956,99.268
5.19,73.38,1.956,99.268
5.19,73.40,1.956,99.267
5.19,73.42,1.956,99.267
5.20,73.44,1.956,99.266
5.20,73.46,1.956,99.266
5.20,73.48,1.956,99.265
5.20,73.49,1.956,99.265
5.20,73.51,1.956,99.264
5.20,73.53,1.956,99.264
5.20,73.55,1.956,99.263
5.21,73.57,1.955,99.262
5.21,73.58,1.955,99.262
5.21,73.60,1.955,99.261
5.21,73.62,1.955,99.261
5.21,73.64,1.955,99.260
5.21,73.66,1.955,99.260
5.22,73.67,1.955,99.259
5.22,73.69,1.955,99.259
5.22,73.71,1.955,99.258
5.22,73.73,1.955,99.258
5.22,73.74,1.955,99.257
5.23,73.76,1.955,99.257
5.23,73.78,1.955,99.256
5.23,73.80,1.955,99.256
5.23,73.81,1.955,99.255
5.23,73.83,1.955,99.254
5.23,73.85,1.955,99.254
5.24,73.86,1.955,99.253
5.24,73.88,1.955,99.253
5.24,73.90,1.955,99.252
5.24,73.91,1.955,99.252
5.24,73.93,1.955,99.251
5.24,73.95,1.955,99.251
5.25,73.96,1.955,99.250
5.25,73.98,1.955,99.249
5.25,74.00,1.955,99.249
5.25,74.01,1.955,99.248
5.25,74.03,1.955,99.248
5.25,74.04,1.955,99.247
5.25,74.06,1.955,99.247
5.26,74.07,1.955,99.246
5.26,74.09,1.955,99.245
5.26,74.11,1.955,99.245
5.26,74.12,1.955,99.244
5.26,74.14,1.955,99.243
5.26,74.15,1.955,99.243
5.27,74.17,1.955,99.242
5.27,74.18,1.955,99.241
5.27,74.20,1.955,99.241
5.27,74.21,1.955,99.240
5.27,74.23,1.955,99.240
5.28,74.24,1.955,99.239
5.28,74.26,1.955,99.238
5.28,74.27,1.955,99.238
5.28,74.29,1.955,99.237
5.28,74.30,1.955,99.236
5.28,74.32,1.955,99.236
5.29,74.33,1.955,99.235
5.29,74.35,1.955,99.235
5.29,74.36,1.955,99.234
5.29,74.38,1.955,99.233
5.29,74.39,1.955,99.233
5.29,74.41,1.955,99.232
5.30,74.42,1.955,99.231
5.30,74.44,1.955,99.231
5.30,74.45,1.955,99.230
5.30,74.47,1.955,99.229
5.30,74.48,1.955,99.229
5.30,74.50,1.955,99.228
5.30,74.51,1.955,99.228
5.31,74.53,1.955,99.227
5.31,74.54,1.955,99.226
5.31,74.56,1.955,99.226
5.31,74.57,1.955,99.225
5.31,74.59,1.955,99.224
5.31,74.60,1.955,99.224
5.32,74.62,1.955,99.223
5.32,74.63,1.955,99.222
5.32,74.65,1.955,99.222
5.32,74.66,1.955,99.221
5.32,74.68,1.955,99.221
5.33,74.69,1.955,99.220
5.33,74.71,1.955,99.220
5.33,74.72,1.955,99.219
5.33,74.74,1.955,99.219
5.33,74.75,1.955,99.218
5.33,74.77,1.955,99.218
5.34,74.78,1.955,99.217
5.34,74.80,1.955,99.217
5.34,74.82,1.955,99.216
5.34,74.83,1.955,99.216
5.34,74.85,1.955,99.215
5.34,74.86,1.955,99.215
5.35,74.88,1.955,99.215
5.35,74.90,1.955,99.214
5.35,74.91,1.955,99.214
5.35,74.93,1.955,99.213
5.35,74.95,1.955,99.213
5.35,74.96,1.955,99.212
5.35,74.98,1.955,99.212
5.36,75.00,1.954,99.212
5.36,75.01,1.954,99.211
5.36,75.03,1.954,99.211
5.36,75.05,1.954,99.210
5.36,75.06,1.954,99.210
5.36,75.08,1.954,99.210
5.37,75.10,1.954,99.209
5.37,75.12,1.954,99.209
5.37,75.13,1.954,99.209
5.37,75.15,1.954,99.208
5.37,75.17,1.954,99.208
5.38,75.19,1.954,99.208
5.38,75.20,1.954,99.208
5.38,75.22,1.954,99.207
5.38,75.24,1.954,99.207
5.38,75.26,1.954,99.207
5.38,75.28,1.954,99.207
5.39,75.29,1.954,99.207
5.39,75.31,1.954,99.206
5.39,75.33,1.954,99.206
5.39,75.35,1.954,99.206
5.39,75.37,1.954,99.206
5.39,75.39,1.954,99.206
5.40,75.40,1.954,99.205
5.40,75.42,1.954,99.205
5.40,75.44,1.954,99.205
5.40,75.46,1.954,99.205
5.40,75.48,1.954,99.204
5.40,75.50,1.954,99.204
5.40,75.52,1.954,99.204
5.41,75.54,1.954,99.204
5.41,75.56,1.954,99.204
5.41,75.57,1.954,99.203
5.41,75.59,1.954,99.203
5.41,75.61,1.954,99.203
5.41,75.63,1.954,99.203
5.42,75.65,1.954,99.202
5.42,75.67,1.954,99.202
5.42,75.69,1.954,99.202
5.42,75.71,1.954,99.201
5.42,75.73,1.954,99.201
5.43,75.75,1.954,99.201
5.43,75.76,1.954,99.201
5.43,75.78,1.954,99.200
5.43,75.80,1.954,99.200
5.43,75.82,1.954,99.200
5.43,75.84,1.954,99.199
5.44,75.86,1.954,99.199
5.44,75.88,1.954,99.199
5.44,75.90,1.954,99.198
5.44,75.92,1.954,99.198
5.44,75.94,1.954,99.197
5.44,75.96,1.954,99.197
5.45,75.97,1.954,99.197
5.45,75.99,1.954,99.196
5.45,76.01,1.954,99.196
5.45,76.03,1.954,99.196
5.45,76.05,1.954,99.195
5.45,76.07,1.954,99.195
5.45,76.09,1.954,99.195
5.46,76.10,1.954,99.194
5.46,76.12,1.954,99.194
5.46,76.14,1.954,99.194
5.46,76.16,1.954,99.193
5.46,76.18,1.954,99.193
5.46,76.20,1.954,99.192
5.47,76.22,1.954,99.192
5.47,76.23,1.954,99.191
5.47,76.25,1.954,99.191
5.47,76.27,1.954,99.190
5.47,76.29,1.954,99.190
5.48,76.31,1.954,99.189
5.48,76.32,1.954,99.189
5.48,76.34,1.954,99.188
5.48,76.36,1.954,99.188
5.48,76.38,1.954,99.188
5.48,76.39,1.954,99.187
5.49,76.41,1.954,99.186
5.49,76.43,1.954,99.186
5.49,76.45,1.954,99.185
5.49,76.46,1.954,99.185
5.49,76.48,1.954,99.185
5.49,76.50,1.954,99.184
5.50,76.51,1.954,99.183
5.50,76.53,1.954,99.183
5.50,76.55,1.954,99.183
5.50,76.56,1.954,99.182
5.50,76.58,1.954,99.182
5.50,76.60,1.954,99.181
5.50,76.61,1.954,99.181
5.51,76.63,1.954,99.180
5.51,76.65,1.954,99.180
5.51,76.66,1.954,99.179
5.51,76.68,1.954,99.179
5.51,76.69,1.954,99.178
5.51,76.71,1.954,99.178
5.52,76.73,1.954,99.177
5.52,76.74,1.954,99.176
5.52,76.76,1.954,99.176
5.52,76.77,1.954,99.175
5.52,76.79,1.954,99.175
5.53,76.80,1.954,99.174
5.53,76.82,1.954,99.173
5.53,76.84,1.954,99.173
5.53,76.85,1.954,99.172
5.53,76.87,1.954,99.172
5.53,76.88,1.954,99.171
5.54,76.90,1.954,99.171
5.54,76.91,1.954,99.170
5.54,76.93,1.954,99.169
5.54,76.94,1.954,99.169
5.54,76.96,1.954,99.168
5.54,76.97,1.954,99.168
5.55,76.99,1.954,99.167
5.55,77.00,1.954,99.167
5.55,77.02,1.954,99.166
5.55,77.03,1.954,99.166
5.55,77.05,1.954,99.165
5.55,77.06,1.954,99.164
5.55,77.08,1.954,99.164
5.56,77.09,1.954,99.163
5.56,77.10,1.954,99.163
5.56,77.12,1.954,99.162
5.56,77.13,1.954,99.162
5.56,77.15,1.954,99.161
5.56,77.16,1.953,99.161
5.57,77.18,1.953,99.160
5.57,77.19,1.953,99.160
5.57,77.21,1.953,99.159
5.57,77.22,1.953,99.159
5.57,77.24,1.953,99.158
5.58,77.25,1.953,99.158
5.58,77.27,1.953,99.157
5.58,77.28,1.953,99.157
5.58,77.30,1.953,99.156
5.58,77.31,1.953,99.156
5.58,77.33,1.953,99.155
5.59,77.34,1.953,99.155
5.59,77.36,1.953,99.154
5.59,77.37,1.953,99.154
5.59,77.39,1.953,99.153
5.59,77.40,1.953,99.153
5.59,77.42,1.953,99.153
5.60,77.44,1.953,99.152
5.60,77.45,1.953,99.152
5.60,77.47,1.953,99.151
5.60,77.48,1.953,99.151
5.60,77.50,1.953,99.151
5.60,77.51,1.953,99.150
5.60,77.53,1.953,99.150
5.61,77.55,1.953,99.149
5.61,77.56,1.953,99.149
5.61,77.58,1.953,99.149
5.61,77.60,1.953,99.148
5.61,77.61,1.953,99.148
5.61,77.63,1.953,99.148
5.62,77.64,1.953,99.147
5.62,77.66,1.953,99.147
5.62,77.68,1.953,99.147
5.62,77.70,1.953,99.146
5.62,77.71,1.953,99.146
5.63,77.73,1.953,99.146
5.63,77.75,1.953,99.145
5.63,77.76,1.953,99.145
5.63,77.78,1.953,99.145
5.63,77.80,1.953,99.144
5.63,77.82,1.953,99.144
5.64,77.83,1.953,99.144
5.64,77.85,1.953,99.144
5.64,77.87,1.953,99.143
5.64,77.89,1.953,99.143
5.64,77.91,1.953,99.143
5.64,77.92,1.953,99.143
5.65,77.94,1.953,99.142
5.65,77.96,1.953,99.142
5.65,77.98,1.953,99.142
5.65,78.00,1.953,99.142
5.65,78.02,1.953,99.142
5.65,78.03,1.953,99.141
5.65,78.05,1.953,99.141
5.66,78.07,1.953,99.141
5.66,78.09,1.953,99.141
5.66,78.11,1.953,99.141
5.66,78.13,1.953,99.141
5.66,78.15,1.953,99.141
5.66,78.16,1.953,99.141
5.67,78.18,1.953,99.140
5.67,78.20,1.953,99.140
5.67,78.22,1.953,99.140
5.67,78.24,1.953,99.140
5.67,78.26,1.953,99.140
5.68,78.28,1.953,99.140
5.68,78.30,1.953,99.140
5.68,78.32,1.953,99.139
5.68,78.34,1.953,99.139
5.68,78.35,1.953,99.139
5.68,78.37,1.953,99.139
5.69,78.39,1.953,99.139
5.69,78.41,1.953,99.138
5.69,78.43,1.953,99.138
5.69,78.45,1.953,99.138
5.69,78.47,1.953,99.138
5.69,78.49,1.953,99.137
5.70,78.51,1.953,99.137
5.70,78.53,1.953,99.137
5.70,78.54,1.953,99.137
5.70,78.56,1.953,99.136
5.70,78.58,1.953,99.136
5.70,78.60,1.953,99.136
5.70,78.62,1.953,99.136
5.71,78.64,1.953,99.135
5.71,78.66,1.953,99.135
5.71,78.68,1.953,99.135
5.71,78.70,1.953,99.134
5.71,78.71,1.953,99.134
5.71,78.73,1.953,99.134
5.72,78.75,1.953,99.133
5.72,78.77,1.953,99.133
5.72,78.79,1.953,99.133
5.72,78.81,1.953,99.132
5.72,78.83,1.953,99.132
5.73,78.84,1.953,99.132
5.73,78.86,1.953,99.131
5.73,78.88,1.953,99.131
5.73,78.90,1.953,99.131
5.73,78.92,1.953,99.130
5.73,78.93,1.953,99.130
5.74,78.95,1.953,99.130
5.74,78.97,1.953,99.129
5.74,78.99,1.953,99.129
5.74,79.00,1.953,99.129
5.74,79.02,1.953,99.128
5.74,79.04,1.953,99.128
5.75,79.06,1.953,99.127
5.75,79.07,1.953,99.127
5.75,79.09,1.953,99.126
5.75,79.11,1.953,99.126
5.75,79.13,1.953,99.125
5.75,79.14,1.953,99.125
5.75,79.16,1.953,99.124
5.76,79.18,1.953,99.124
5.76,79.19,1.953,99.124
5.76,79.21,1.953,99.123
5.76,79.23,1.953,99.123
5.76,79.24,1.953,99.122
5.76,79.26,1.953,99.122
5.77,79.28,1.953,99.121
5.77,79.29,1.953,99.121
5.77,79.31,1.953,99.121
5.77,79.32,1.953,99.120
5.77,79.34,1.953,99.120
5.78,79.36,1.953,99.119
5.78,79.37,1.953,99.119
5.78,79.39,1.953,99.118
5.78,79.40,1.953,99.118
5.78,79.42,1.953,99.117
5.78,79.43,1.953,99.117
5.79,79.45,1.953,99.116
5.79,79.47,1.953,99.116
5.79,79.48,1.953,99.116
5.79,79.50,1.953,99.115
5.79,79.51,1.953,99.115
5.79,79.53,1.953,99.114
5.80,79.54,1.953,99.114
5.80,79.56,1.953,99.113
5.80,79.57,1.953,99.113
5.80,79.59,1.953,99.113
5.80,79.60,1.953,99.112
5.80,79.62,1.953,99.112
5.80,79.63,1.953,99.111
5.81,79.65,1.953,99.111
5.81,79.66,1.953,99.110
5.81,79.68,1.952,99.110
5.81,79.69,1.952,99.109
5.81,79.70,1.952,99.109
5.81,79.72,1.952,99.108
5.82,79.73,1.952,99.108
5.82,79.75,1.952,99.107
5.82,79.76,1.952,99.107
5.82,79.78,1.952,99.106
5.82,79.79,1.952,99.106
5.83,79.81,1.952,99.105
5.83,79.82,1.952,99.105
5.83,79.84,1.952,99.104
5.83,79.85,1.952,99.104
5.83,79.87,1.952,99.103
5.83,79.88,1.952,99.103
5.84,79.90,1.952,99.102
5.84,79.91,1.952,99.102
5.84,79.93,1.952,99.101
5.84,79.94,1.952,99.101
5.84,79.96,1.952,99.101
5.84,79.97,1.952,99.100
5.85,79.99,1.952,99.100
5.85,80.00,1.952,99.099
5.85,80.02,1.952,99.099
5.85,80.03,1.952,99.099
5.85,80.05,1.952,99.098
5.85,80.06,1.952,99.098
5.85,80.08,1.952,99.098
5.86,80.10,1.952,99.097
5.86,80.11,1.952,99.097
5.86,80.13,1.952,99.096
5.86,80.14,1.952,99.096
5.86,80.16,1.952,99.096
5.86,80.17,1.952,99.096
5.87,80.19,1.952,99.095
5.87,80.21,1.952,99.095
5.87,80.22,1.952,99.095
5.87,80.24,1.952,99.095
5.87,80.26,1.952,99.094
5.88,80.27,1.952,99.094
5.88,80.29,1.952,99.094
5.88,80.31,1.952,99.094
5.88,80.32,1.952,99.094
5.88,80.34,1.952,99.093
5.88,80.36,1.952,99.093
5.89,80.38,1.952,99.093
5.89,80.39,1.952,99.093
5.89,80.41,1.952,99.093
5.89,80.43,1.952,99.093
5.89,80.45,1.952,99.092
5.89,80.46,1.952,99.092
5.90,80.48,1.952,99.092
5.90,80.50,1.952,99.092
5.90,80.52,1.952,99.092
5.90,80.53,1.952,99.092
5.90,80.55,1.952,99.092
5.90,80.57,1.952,99.091
5.90,80.59,1.952,99.091
5.91,80.61,1.952,99.091
5.91,80.63,1.952,99.091
5.91,80.64,1.952,99.091
5.91,80.66,1.952,99.091
5.91,80.68,1.952,99.091
5.91,80.70,1.952,99.091
5.92,80.72,1.952,99.091
5.92,80.74,1.952,99.091
5.92,80.76,1.952,99.091
5.92,80.77,1.952,99.091
5.92,80.79,1.952,99.090
5.93,80.81,1.952,99.090
5.93,80.83,1.952,99.090
5.93,80.85,1.952,99.090
5.93,80.87,1.952,99.090
5.93,80.89,1.952,99.090
5.93,80.91,1.952,99.089
5.94,80.93,1.952,99.089
5.94,80.95,1.952,99.089
5.94,80.96,1.952,99.089
5.94,80.98,1.952,99.089
5.94,81.00,1.952,99.089
5.94,81.02,1.952,99.089
5.95,81.04,1.952,99.089
5.95,81.06,1.952,99.088
5.95,81.08,1.952,99.088
5.95,81.10,1.952,99.088
5.95,81.12,1.952,99.088
5.95,81.14,1.952,99.088
5.95,81.16,1.952,99.087
5.96,81.17,1.952,99.087
5.96,81.19,1.952,99.087
5.96,81.21,1.952,99.087
5.96,81.23,1.952,99.087
5.96,81.25,1.952,99.086
5.96,81.27,1.952,99.086
5.97,81.29,1.952,99.086
5.97,81.31,1.952,99.086
5.97,81.33,1.952,99.086
5.97,81.34,1.952,99.085
5.97,81.36,1.952,99.085
5.98,81.38,1.952,99.085
5.98,81.40,1.952,99.084
5.98,81.42,1.952,99.084
5.98,81.44,1.952,99.084
5.98,81.46,1.952,99.084
5.98,81.47,1.952,99.083
5.99,81.49,1.952,99.083
5.99,81.51,1.952,99.083
5.99,81.53,1.952,99.083
5.99,81.55,1.952,99.082
5.99,81.56,1.952,99.082
5.99,81.58,1.952,99.082
6.00,81.60,1.952,99.081
6.00,81.62,1.952,99.081
6.00,81.63,1.952,99.081
6.00,81.65,1.952,99.080
6.00,81.67,1.952,99.080
6.00,81.69,1.952,99.080
6.00,81.70,1.952,99.079
6.01,81.72,1.952,99.079
6.01,81.74,1.952,99.079
6.01,81.76,1.952,99.078
6.01,81.77,1.952,99.078
6.01,81.79,1.952,99.078
6.01,81.81,1.952,99.078
6.02,81.82,1.952,99.077
6.02,81.84,1.952,99.077
6.02,81.86,1.952,99.077
6.02,81.87,1.952,99.076
6.02,81.89,1.952,99.076
6.03,81.91,1.952,99.075
6.03,81.92,1.952,99.075
6.03,81.94,1.952,99.074
6.03,81.95,1.952,99.074
6.03,81.97,1.952,99.074
6.03,81.99,1.952,99.073
6.04,82.00,1.952,99.073
6.04,82.02,1.952,99.072
6.04,82.03,1.952,99.072
6.04,82.05,1.952,99.072
6.04,82.07,1.952,99.071
6.04,82.08,1.952,99.071
6.05,82.10,1.952,99.070
6.05,82.11,1.952,99.070
6.05,82.13,1.952,99.069
6.05,82.14,1.952,99.069
6.05,82.16,1.952,99.069
6.05,82.17,1.952,99.068
6.05,82.19,1.952,99.068
6.06,82.20,1.952,99.067
6.06,82.22,1.952,99.067
6.06,82.23,1.952,99.066
6.06,82.25,1.952,99.066
6.06,82.26,1.952,99.066
6.06,82.28,1.952,99.065
6.07,82.29,1.952,99.065
6.07,82.31,1.952,99.064
6.07,82.32,1.952,99.064
6.07,82.34,1.952,99.063
6.07,82.35,1.952,99.063
6.08,82.37,1.952,99.062
6.08,82.38,1.952,99.062
6.08,82.40,1.952,99.062
6.08,82.41,1.952,99.061
6.08,82.43,1.952,99.061
6.08,82.44,1.952,99.060
6.09,82.46,1.952,99.060
6.09,82.47,1.951,99.059
6.09,82.49,1.951,99.059
6.09,82.50,1.951,99.059
6.09,82.52,1.951,99.058
6.09,82.53,1.951,99.058
6.10,82.55,1.951,99.058
6.10,82.56,1.951,99.057
6.10,82.58,1.951,99.057
6.10,82.59,1.951,99.056
6.10,82.61,1.951,99.056
6.10,82.62,1.951,99.056
6.10,82.64,1.951,99.055
6.11,82.65,1.951,99.055
6.11,82.67,1.951,99.055
6.11,82.68,1.951,99.054
6.11,82.70,1.951,99.054
6.11,82.71,1.951,99.054
6.11,82.73,1.951,99.054
6.12,82.75,1.951,99.053
6.12,82.76,1.951,99.053
6.12,82.78,1.951,99.053
6.12,82.79,1.951,99.053
6.12,82.81,1.951,99.053
6.13,82.83,1.951,99.052
6.13,82.84,1.951,99.052
6.13,82.86,1.951,99.052
6.13,82.88,1.951,99.052
6.13,82.89,1.951,99.052
6.13,82.91,1.951,99.051
6.14,82.93,1.951,99.051
6.14,82.94,1.951,99.051
6.14,82.96,1.951,99.051
6.14,82.98,1.951,99.051
6.14,83.00,1.951,99.051
6.14,83.01,1.951,99.051
6.15,83.03,1.951,99.050
6.15,83.05,1.951,99.050
6.15,83.07,1.951,99.050
6.15,83.08,1.951,99.050
6.15,83.10,1.951,99.050
6.15,83.12,1.951,99.050
6.15,83.14,1.951,99.050
6.16,83.15,1.951,99.049
6.16,83.17,1.951,99.049
6.16,83.19,1.951,99.049
6.16,83.21,1.951,99.049
6.16,83.23,1.951,99.049
6.16,83.25,1.951,99.049
6.17,83.26,1.951,99.049
6.17,83.28,1.951,99.049
6.17,83.30,1.951,99.049
6.17,83.32,1.951,99.049
6.17,83.34,1.951,99.049
6.18,83.36,1.951,99.050
6.18,83.38,1.951,99.050
6.18,83.40,1.951,99.050
6.18,83.41,1.951,99.050
6.18,83.43,1.951,99.050
6.18,83.45,1.951,99.050
6.19,83.47,1.951,99.050
6.19,83.49,1.951,99.049
6.19,83.51,1.951,99.049
6.19,83.53,1.951,99.049
6.19,83.55,1.951,99.049
6.19,83.57,1.951,99.049
6.20,83.59,1.951,99.049
6.20,83.60,1.951,99.049
6.20,83.62,1.951,99.049
6.20,83.64,1.951,99.049
6.20,83.66,1.951,99.049
6.20,83.68,1.951,99.049
6.20,83.70,1.951,99.049
6.21,83.72,1.951,99.049
6.21,83.74,1.951,99.049
6.21,83.76,1.951,99.049
6.21,83.78,1.951,99.049
6.21,83.80,1.951,99.049
6.21,83.81,1.951,99.048
6.22,83.83,1.951,99.048
6.22,83.85,1.951,99.048
6.22,83.87,1.951,99.048
6.22,83.89,1.951,99.048
6.22,83.91,1.951,99.048
6.23,83.93,1.951,99.048
6.23,83.95,1.951,99.048
6.23,83.96,1.951,99.047
6.23,83.98,1.951,99.047
6.23,84.00,1.951,99.047
6.23,84.02,1.951,99.047
6.24,84.04,1.951,99.047
6.24,84.06,1.951,99.047
6.24,84.08,1.951,99.046
6.24,84.09,1.951,99.046
6.24,84.11,1.951,99.046
6.24,84.13,1.951,99.046
6.25,84.15,1.951,99.046
6.25,84.17,1.951,99.045
6.25,84.18,1.951,99.045
6.25,84.20,1.951,99.045
6.25,84.22,1.951,99.045
6.25,84.24,1.951,99.045
6.25,84.26,1.951,99.044
6.26,84.27,1.951,99.044
6.26,84.29,1.951,99.044
6.26,84.31,1.951,99.044
6.26,84.32,1.951,99.043
6.26,84.34,1.951,99.043
6.26,84.36,1.951,99.043
6.27,84.38,1.951,99.043
6.27,84.39,1.951,99.042
6.27,84.41,1.951,99.042
6.27,84.43,1.951,99.042
6.27,84.44,1.951,99.042
6.28,84.46,1.951,99.041
6.28,84.48,1.951,99.041
6.28,84.49,1.951,99.041
6.28,84.51,1.951,99.041
6.28,84.52,1.951,99.040
6.28,84.54,1.951,99.040
6.29,84.56,1.951,99.040
6.29,84.57,1.951,99.039
6.29,84.59,1.951,99.039
6.29,84.60,1.951,99.039
6.29,84.62,1.951,99.039
6.29,84.64,1.951,99.038
6.30,84.65,1.951,99.038
6.30,84.67,1.951,99.038
6.30,84.68,1.951,99.037
6.30,84.70,1.951,99.037
6.30,84.71,1.951,99.037
6.30,84.73,1.951,99.036
6.30,84.74,1.951,99.036
6.31,84.76,1.951,99.036
6.31,84.77,1.951,99.035
6.31,84.79,1.951,99.035
6.31,84.80,1.951,99.035
6.31,84.82,1.951,99.034
6.31,84.83,1.951,99.034
6.32,84.85,1.951,99.033
6.32,84.86,1.951,99.033
6.32,84.88,1.951,99.033
6.32,84.89,1.951,99.032
6.32,84.91,1.951,99.032
6.33,84.92,1.951,99.031
6.33,84.94,1.951,99.031
6.33,84.95,1.951,99.031
6.33,84.97,1.951,99.031
6.33,84.98,1.951,99.030
6.33,85.00,1.951,99.030
6.34,85.01,1.951,99.029
6.34,85.03,1.951,99.029
6.34,85.04,1.951,99.029
6.34,85.06,1.951,99.028
6.34,85.07,1.951,99.028
6.34,85.09,1.951,99.028
6.35,85.10,1.951,99.027
6.35,85.12,1.951,99.027
6.35,85.13,1.951,99.027
6.35,85.15,1.951,99.027
6.35,85.16,1.951,99.026
6.35,85.18,1.951,99.026
6.35,85.19,1.951,99.026
6.36,85.21,1.951,99.025
6.36,85.22,1.951,99.025
6.36,85.24,1.951,99.025
6.36,85.25,1.951,99.025
6.36,85.27,1.951,99.025
6.36,85.28,1.951,99.025
6.37,85.30,1.951,99.025
6.37,85.32,1.951,99.025
6.37,85.33,1.951,99.024
6.37,85.35,1.951,99.024
6.37,85.36,1.951,99.024
6.38,85.38,1.951,99.024
6.38,85.39,1.951,99.024
6.38,85.41,1.951,99.024
6.38,85.43,1.951,99.024
6.38,85.44,1.951,99.023
6.38,85.46,1.951,99.023
6.39,85.48,1.951,99.023
6.39,85.49,1.951,99.023
6.39,85.51,1.951,99.022
6.39,85.53,1.951,99.022
6.39,85.54,1.951,99.022
6.39,85.56,1.951,99.022
6.40,85.58,1.951,99.022
6.40,85.60,1.951,99.022
6.40,85.61,1.951,99.022
6.40,85.63,1.951,99.021
6.40,85.65,1.951,99.021
6.40,85.67,1.951,99.021
6.40,85.68,1.951,99.021
6.41,85.70,1.951,99.021
6.41,85.72,1.951,99.021
6.41,85.74,1.951,99.021
6.41,85.75,1.951,99.021
6.41,85.77,1.951,99.021
6.41,85.79,1.951,99.021
6.42,85.81,1.951,99.021
6.42,85.83,1.951,99.021
6.42,85.85,1.951,99.021
6.42,85.86,1.951,99.021
6.42,85.88,1.951,99.021
6.43,85.90,1.951,99.021
6.43,85.92,1.951,99.021
6.43,85.94,1.951,99.021
6.43,85.96,1.951,99.021
6.43,85.98,1.951,99.021
6.43,85.99,1.951,99.021
6.44,86.01,1.951,99.021
6.44,86.03,1.951,99.021
6.44,86.05,1.951,99.021
6.44,86.07,1.951,99.021
6.44,86.09,1.951,99.021
6.44,86.11,1.951,99.021
6.45,86.13,1.951,99.021
6.45,86.15,1.951,99.021
6.45,86.17,1.951,99.021
6.45,86.18,1.951,99.022
6.45,86.20,1.951,99.022
6.45,86.22,1.951,99.022
6.45,86.24,1.951,99.022
6.46,86.26,1.951,99.022
6.46,86.28,1.951,99.022
6.46,86.30,1.951,99.022
6.46,86.32,1.951,99.022
6.46,86.34,1.951,99.022
6.46,86.36,1.951,99.022
6.47,86.38,1.951,99.022
6.47,86.39,1.951,99.022
6.47,86.41,1.951,99.022
6.47,86.43,1.951,99.022
6.47,86.45,1.951,99.021
6.48,86.47,1.951,99.021
6.48,86.49,1.951,99.021
6.48,86.51,1.951,99.021
6.48,86.53,1.951,99.021
6.48,86.54,1.951,99.021
6.48,86.56,1.951,99.021
6.49,86.58,1.951,99.020
6.49,86.60,1.951,99.020
6.49,86.62,1.951,99.020
6.49,86.64,1.951,99.020
6.49,86.65,1.951,99.020
6.49,86.67,1.951,99.020
6.50,86.69,1.951,99.019
6.50,86.71,1.951,99.019
6.50,86.73,1.951,99.019
6.50,86.75,1.951,99.019
6.50,86.76,1.951,99.019
6.50,86.78,1.951,99.019
6.50,86.80,1.951,99.018
6.51,86.82,1.951,99.018
6.51,86.83,1.951,99.018
6.51,86.85,1.951,99.018
6.51,86.87,1.951,99.018
6.51,86.89,1.951,99.017
6.51,86.90,1.951,99.017
6.52,86.92,1.951,99.017
6.52,86.94,1.951,99.017
6.52,86.95,1.951,99.017
6.52,86.97,1.951,99.017
6.52,86.99,1.951,99.016
6.53,87.00,1.951,99.016
6.53,87.02,1.951,99.016
6.53,87.04,1.951,99.016
6.53,87.05,1.951,99.015
6.53,87.07,1.951,99.015
6.53,87.09,1.951,99.015
6.54,87.10,1.951,99.015
6.54,87.12,1.951,99.014
6.54,87.13,1.951,99.014
6.54,87.15,1.951,99.014
6.54,87.17,1.951,99.014
6.54,87.18,1.951,99.013
6.55,87.20,1.951,99.013
6.55,87.21,1.951,99.013
6.55,87.23,1.951,99.013
6.55,87.24,1.951,99.012
6.55,87.26,1.951,99.012
6.55,87.28,1.951,99.012
6.55,87.29,1.951,99.011
6.56,87.31,1.951,99.011
6.56,87.32,1.951,99.011
6.56,87.34,1.951,99.010
6.56,87.35,1.951,99.010
6.56,87.37,1.951,99.010
6.56,87.38,1.951,99.009
6.57,87.40,1.951,99.009
6.57,87.41,1.951,99.009
6.57,87.43,1.950,99.009
6.57,87.44,1.950,99.008
6.57,87.46,1.950,99.008
6.58,87.47,1.950,99.008
6.58,87.49,1.950,99.008
6.58,87.50,1.950,99.007
6.58,87.52,1.950,99.007
6.58,87.53,1.950,99.007
6.58,87.55,1.950,99.006
6.59,87.56,1.950,99.006
6.59,87.58,1.950,99.006
6.59,87.59,1.950,99.005
6.59,87.61,1.950,99.005
6.59,87.62,1.950,99.004
6.59,87.64,1.950,99.004
6.60,87.65,1.950,99.004
6.60,87.67,1.950,99.003
6.60,87.68,1.950,99.003
6.60,87.70,1.950,99.003
6.60,87.71,1.950,99.002
6.60,87.73,1.950,99.002
6.60,87.74,1.950,99.002
6.61,87.76,1.950,99.002
6.61,87.77,1.950,99.001
6.61,87.79,1.950,99.001
6.61,87.80,1.950,99.001
6.61,87.82,1.950,99.001
6.61,87.83,1.950,99.001
6.62,87.85,1.950,99.001
6.62,87.86,1.950,99.000
6.62,87.88,1.950,99.000
6.62,87.90,1.950,99.000
6.62,87.91,1.950,99.000
6.63,87.93,1.950,99.000
6.63,87.94,1.950,99.000
6.63,87.96,1.950,99.000
6.63,87.98,1.950,99.000
6.63,87.99,1.950,98.999
6.63,88.01,1.950,98.999
6.64,88.03,1.950,98.999
6.64,88.04,1.950,98.999
6.64,88.06,1.950,98.999
6.64,88.08,1.950,98.999
6.64,88.09,1.950,98.999
6.64,88.11,1.950,98.999
6.65,88.13,1.950,98.999
6.65,88.15,1.950,98.999
6.65,88.16,1.950,98.999
6.65,88.18,1.950,98.999
6.65,88.20,1.950,98.999
6.65,88.22,1.950,98.999
6.65,88.23,1.950,98.999
6.66,88.25,1.950,98.999
6.66,88.27,1.950,98.999
6.66,88.29,1.950,98.999
6.66,88.30,1.950,98.999
6.66,88.32,1.950,98.999
6.66,88.34,1.950,98.999
6.67,88.36,1.950,98.999
6.67,88.38,1.950,99.000
6.67,88.40,1.950,99.000
6.67,88.41,1.950,99.000
6.67,88.43,1.950,99.000
6.68,88.45,1.950,99.000
6.68,88.47,1.950,99.000
6.68,88.49,1.950,99.000
6.68,88.51,1.950,99.000
6.68,88.53,1.950,99.001
6.68,88.54,1.950,99.001
6.69,88.56,1.950,99.001
6.69,88.58,1.950,99.001
6.69,88.60,1.950,99.001
6.69,88.62,1.950,99.001
6.69,88.64,1.950,99.001
6.69,88.66,1.950,99.001
6.70,88.68,1.950,99.001
6.70,88.70,1.950,99.001
6.70,88.72,1.950,99.001
6.70,88.73,1.950,99.001
6.70,88.75,1.950,99.002
6.70,88.77,1.950,99.002
6.70,88.79,1.950,99.002
6.71,88.81,1.950,99.002
6.71,88.83,1.950,99.002
6.71,88.85,1.950,99.002
6.71,88.87,1.950,99.002
6.71,88.89,1.950,99.002
6.71,88.91,1.950,99.002
6.72,88.92,1.950,99.002
6.72,88.94,1.950,99.002
6.72,88.96,1.950,99.002
6.72,88.98,1.950,99.002
6.72,89.00,1.950,99.002
6.73,89.02,1.950,99.002
6.73,89.04,1.950,99.002
6.73,89.06,1.950,99.002
6.73,89.08,1.950,99.002
6.73,89.09,1.950,99.002
6.73,89.11,1.950,99.002
6.74,89.13,1.950,99.002
6.74,89.15,1.950,99.002
6.74,89.17,1.950,99.002
6.74,89.19,1.950,99.002
6.74,89.21,1.950,99.002
6.74,89.22,1.950,99.001
6.75,89.24,1.950,99.001
6.75,89.26,1.950,99.001
6.75,89.28,1.950,99.001
6.75,89.30,1.950,99.001
6.75,89.31,1.950,99.001
6.75,89.33,1.950,99.001
6.75,89.35,1.950,99.001
6.76,89.37,1.950,99.001
6.76,89.38,1.950,99.001
6.76,89.40,1.950,99.000
6.76,89.42,1.950,99.000
6.76,89.44,1.950,99.000
6.76,89.45,1.950,99.000
6.77,89.47,1.950,99.000
6.77,89.49,1.950,99.000
6.77,89.51,1.950,98.999
6.77,89.52,1.950,98.999
6.77,89.54,1.950,98.999
6.78,89.56,1.950,98.999
6.78,89.57,1.950,98.999
6.78,89.59,1.950,98.999
6.78,89.61,1.950,98.998
6.78,89.62,1.950,98.998
6.78,89.64,1.950,98.998
6.79,89.65,1.950,98.998
6.79,89.67,1.950,98.998
6.79,89.69,1.950,98.997
6.79,89.70,1.950,98.997
6.79,89.72,1.950,98.997
6.79,89.74,1.950,98.997
6.80,89.75,1.950,98.996
6.80,89.77,1.950,98.996
6.80,89.78,1.950,98.996
6.80,89.80,1.950,98.996
6.80,89.81,1.950,98.995
6.80,89.83,1.950,98.995
6.80,89.85,1.950,98.995
6.81,89.86,1.950,98.995
6.81,89.88,1.950,98.994
6.81,89.89,1.950,98.994
6.81,89.91,1.950,98.994
6.81,89.92,1.950,98.994
6.81,89.94,1.950,98.993
6.82,89.95,1.950,98.993
6.82,89.97,1.950,98.993
6.82,89.98,1.950,98.993
6.82,90.00,1.950,98.992
6.82,90.01,1.950,98.992
6.83,90.03,1.950,98.992
6.83,90.04,1.950,98.991
6.83,90.06,1.950,98.991
6.83,90.08,1.950,98.991
6.83,90.09,1.950,98.991
6.83,90.11,1.950,98.990
6.84,90.12,1.950,98.990
6.84,90.14,1.950,98.990
6.84,90.15,1.950,98.990
6.84,90.17,1.950,98.989
6.84,90.18,1.950,98.989
6.84,90.20,1.950,98.989
6.85,90.21,1.950,98.989
6.85,90.23,1.950,98.989
6.85,90.24,1.950,98.988
6.85,90.26,1.950,98.988
6.85,90.27,1.950,98.988
6.85,90.29,1.950,98.988
6.85,90.31,1.950,98.988
6.86,90.32,1.950,98.988
6.86,90.34,1.950,98.988
6.86,90.35,1.950,98.987
6.86,90.37,1.950,98.987
6.86,90.38,1.950,98.987
6.86,90.40,1.950,98.987
6.87,90.42,1.950,98.987
6.87,90.43,1.950,98.987
6.87,90.45,1.950,98.987
6.87,90.47,1.950,98.987
6.87,90.48,1.950,98.986
6.88,90.50,1.950,98.986
6.88,90.51,1.950,98.986
6.88,90.53,1.950,98.986
6.88,90.55,1.950,98.986
6.88,90.57,1.950,98.986
6.88,90.58,1.950,98.986
6.89,90.60,1.950,98.986
6.89,90.62,1.950,98.986
6.89,90.63,1.950,98.986
6.89,90.65,1.950,98.986
6.89,90.67,1.950,98.986
6.89,90.68,1.950,98.986
6.90,90.70,1.950,98.986
6.90,90.72,1.950,98.986
6.90,90.74,1.950,98.986
6.90,90.76,1.950,98.986
6.90,90.77,1.950,98.986
6.90,90.79,1.950,98.986
6.90,90.81,1.950,98.986
6.91,90.83,1.950,98.986
6.91,90.84,1.950,98.986
6.91,90.86,1.950,98.986
6.91,90.88,1.950,98.986
6.91,90.90,1.950,98.986
6.91,90.92,1.950,98.986
6.92,90.94,1.950,98.986
6.92,90.95,1.950,98.986
6.92,90.97,1.950,98.986
6.92,90.99,1.950,98.986
6.92,91.01,1.950,98.986
6.93,91.03,1.950,98.986
6.93,91.05,1.950,98.986
6.93,91.07,1.950,98.986
6.93,91.09,1.950,98.987
6.93,91.10,1.950,98.987
6.93,91.12,1.950,98.987
6.94,91.14,1.950,98.987
6.94,91.16,1.950,98.987
6.94,91.18,1.950,98.987
6.94,91.20,1.950,98.987
6.94,91.22,1.950,98.987
6.94,91.24,1.950,98.987
6.95,91.26,1.950,98.987
6.95,91.27,1.950,98.987
6.95,91.29,1.950,98.987
6.95,91.31,1.950,98.987
6.95,91.33,1.950,98.988
6.95,91.35,1.950,98.988
6.95,91.37,1.950,98.988
6.96,91.39,1.950,98.988
6.96,91.41,1.950,98.988
6.96,91.43,1.950,98.988
6.96,91.45,1.950,98.988
6.96,91.47,1.950,98.988
6.96,91.48,1.950,98.988
6.97,91.50,1.950,98.988
6.97,91.52,1.950,98.988
6.97,91.54,1.950,98.988
6.97,91.56,1.950,98.988
6.97,91.58,1.950,98.988
6.98,91.60,1.950,98.988
6.98,91.62,1.950,98.988
6.98,91.63,1.950,98.988
6.98,91.65,1.950,98.988
6.98,91.67,1.950,98.988
6.98,91.69,1.950,98.988
6.99,91.71,1.950,98.988
6.99,91.73,1.950,98.988
6.99,91.74,1.950,98.988
6.99,91.76,1.950,98.988
6.99,91.78,1.950,98.988
6.99,91.80,1.950,98.987
7.00,91.82,1.950,98.987
7.00,91.83,1.950,98.987
7.00,91.85,1.950,98.987
7.00,91.87,1.950,98.987
7.00,91.89,1.950,98.987
7.00,91.91,1.950,98.987
7.00,91.92,1.950,98.987
7.01,91.94,1.950,98.986
7.01,91.96,1.950,98.986
7.01,91.97,1.950,98.986
7.01,91.99,1.950,98.986
7.01,92.01,1.950,98.986
7.01,92.03,1.950,98.986
7.02,92.04,1.950,98.986
7.02,92.06,1.950,98.985
7.02,92.08,1.950,98.985
7.02,92.09,1.950,98.985
7.02,92.11,1.950,98.985
7.03,92.13,1.950,98.985
7.03,92.14,1.950,98.985
7.03,92.16,1.950,98.985
7.03,92.18,1.950,98.984
7.03,92.19,1.950,98.984
7.03,92.21,1.950,98.984
7.04,92.22,1.950,98.984
7.04,92.24,1.950,98.984
7.04,92.26,1.950,98.983
7.04,92.27,1.950,98.983
7.04,92.29,1.950,98.983
7.04,92.30,1.950,98.983
7.05,92.32,1.950,98.983
7.05,92.33,1.950,98.982
7.05,92.35,1.950,98.982
7.05,92.37,1.950,98.982
7.05,92.38,1.950,98.982
7.05,92.40,1.950,98.981
7.05,92.41,1.950,98.981
7.06,92.43,1.950,98.981
7.06,92.44,1.950,98.981
7.06,92.46,1.950,98.980
7.06,92.47,1.950,98.980
7.06,92.49,1.950,98.980
7.06,92.50,1.950,98.980
7.07,92.52,1.950,98.979
7.07,92.53,1.950,98.979
7.07,92.55,1.950,98.979
7.07,92.56,1.950,98.979
7.07,92.58,1.950,98.979
7.08,92.59,1.950,98.978
7.08,92.61,1.950,98.978
7.08,92.62,1.950,98.978
7.08,92.64,1.950,98.978
7.08,92.65,1.950,98.978
7.08,92.67,1.950,98.978
7.09,92.68,1.950,98.977
7.09,92.70,1.950,98.977
7.09,92.71,1.950,98.977
7.09,92.73,1.950,98.977
7.09,92.75,1.950,98.977
7.09,92.76,1.950,98.977
7.10,92.78,1.950,98.976
7.10,92.79,1.950,98.976
7.10,92.81,1.950,98.976
7.10,92.82,1.950,98.976
7.10,92.84,1.950,98.976
7.10,92.85,1.950,98.975
7.10,92.87,1.950,98.975
7.11,92.88,1.950,98.975
7.11,92.90,1.950,98.975
7.11,92.92,1.950,98.975
7.11,92.93,1.950,98.975
7.11,92.95,1.950,98.975
7.11,92.96,1.950,98.974
7.12,92.98,1.950,98.974
7.12,93.00,1.950,98.974
7.12,93.01,1.950,98.974
7.12,93.03,1.950,98.974
7.12,93.04,1.950,98.974
7.13,93.06,1.950,98.974
7.13,93.08,1.950,98.974
7.13,93.09,1.950,98.974
7.13,93.11,1.950,98.974
7.13,93.13,1.950,98.974
7.13,93.15,1.950,98.974
7.14,93.16,1.950,98.974
7.14,93.18,1.950,98.974
7.14,93.20,1.950,98.974
7.14,93.21,1.950,98.974
7.14,93.23,1.950,98.974
7.14,93.25,1.950,98.974
7.15,93.27,1.950,98.974
7.15,93.28,1.950,98.974
7.15,93.30,1.950,98.974
7.15,93.32,1.950,98.974
7.15,93.34,1.950,98.974
7.15,93.35,1.950,98.974
7.15,93.37,1.950,98.974
7.16,93.39,1.950,98.974
7.16,93.41,1.950,98.974
7.16,93.43,1.950,98.974
7.16,93.44,1.950,98.974
7.16,93.46,1.950,98.975
7.16,93.48,1.950,98.975
7.17,93.50,1.950,98.975
7.17,93.52,1.950,98.975
7.17,93.54,1.950,98.975
7.17,93.56,1.950,98.975
7.17,93.57,1.950,98.975
7.18,93.59,1.950,98.975
7.18,93.61,1.950,98.975
7.18,93.63,1.950,98.975
7.18,93.65,1.950,98.976
7.18,93.67,1.950,98.976
7.18,93.69,1.950,98.976
7.19,93.71,1.950,98.976
7.19,93.72,1.950,98.976
7.19,93.74,1.950,98.976
7.19,93.76,1.950,98.976
7.19,93.78,1.950,98.976
7.19,93.80,1.950,98.976
7.20,93.82,1.950,98.976
7.20,93.84,1.950,98.977
7.20,93.86,1.950,98.977
7.20,93.88,1.950,98.977
7.20,93.89,1.950,98.977
7.20,93.91,1.950,98.977
7.20,93.93,1.950,98.977
7.21,93.95,1.950,98.977
7.21,93.97,1.950,98.977
7.21,93.99,1.950,98.977
7.21,94.01,1.950,98.977
7.21,94.03,1.950,98.977
7.21,94.05,1.950,98.977
7.22,94.06,1.950,98.977
7.22,94.08,1.950,98.977
7.22,94.10,1.950,98.977
7.22,94.12,1.950,98.977
7.22,94.14,1.950,98.977
7.23,94.16,1.950,98.977
7.23,94.18,1.950,98.977
7.23,94.19,1.950,98.977
7.23,94.21,1.950,98.977
7.23,94.23,1.950,98.977
7.23,94.25,1.950,98.977
7.24,94.27,1.950,98.977
7.24,94.28,1.950,98.977
7.24,94.30,1.950,98.977
7.24,94.32,1.950,98.977
7.24,94.34,1.950,98.977
7.24,94.36,1.950,98.977
7.25,94.37,1.950,98.977
7.25,94.39,1.950,98.977
7.25,94.41,1.950,98.977
7.25,94.43,1.950,98.977
7.25,94.44,1.950,98.977
7.25,94.46,1.950,98.976
7.25,94.48,1.950,98.976
7.26,94.49,1.950,98.976
7.26,94.51,1.950,98.976
7.26,94.53,1.950,98.976
7.26,94.55,1.950,98.976
7.26,94.56,1.950,98.976
7.26,94.58,1.950,98.976
7.27,94.60,1.950,98.976
7.27,94.61,1.950,98.975
7.27,94.63,1.950,98.975
7.27,94.64,1.950,98.975
7.27,94.66,1.950,98.975
7.28,94.68,1.950,98.975
7.28,94.69,1.950,98.974
7.28,94.71,1.950,98.974
7.28,94.73,1.950,98.974
7.28,94.74,1.950,98.974
7.28,94.76,1.950,98.974
7.29,94.77,1.950,98.974
7.29,94.79,1.950,98.973
7.29,94.80,1.950,98.973
7.29,94.82,1.950,98.973
7.29,94.84,1.950,98.973
7.29,94.85,1.950,98.973
7.30,94.87,1.950,98.973
7.30,94.88,1.950,98.972
7.30,94.90,1.950,98.972
7.30,94.91,1.950,98.972
7.30,94.93,1.950,98.972
7.30,94.94,1.950,98.972
7.30,94.96,1.950,98.971
7.31,94.97,1.950,98.971
7.31,94.99,1.950,98.971
7.31,95.00,1.950,98.971
7.31,95.02,1.950,98.971
7.31,95.03,1.950,98.970
7.31,95.05,1.950,98.970
7.32,95.06,1.950,98.970
7.32,95.08,1.950,98.970
7.32,95.09,1.950,98.970
7.32,95.11,1.950,98.969
7.32,95.12,1.950,98.969
7.33,95.14,1.950,98.969
7.33,95.15,1.950,98.969
7.33,95.17,1.950,98.968
7.33,95.18,1.950,98.968
7.33,95.20,1.950,98.968
7.33,95.21,1.950,98.968
7.34,95.23,1.950,98.968
7.34,95.24,1.950,98.967
7.34,95.26,1.950,98.967
7.34,95.27,1.950,98.967
7.34,95.29,1.950,98.967
7.34,95.30,1.950,98.967
7.35,95.32,1.950,98.967
7.35,95.33,1.950,98.967
7.35,95.35,1.950,98.966
7.35,95.36,1.950,98.966
7.35,95.38,1.950,98.966
7.35,95.39,1.950,98.966
7.35,95.41,1.950,98.966
7.36,95.43,1.950,98.966
7.36,95.44,1.950,98.966
7.36,95.46,1.950,98.966
7.36,95.47,1.950,98.966
7.36,95.49,1.950,98.966
7.36,95.51,1.950,98.966
7.37,95.52,1.950,98.965
7.37,95.54,1.950,98.965
7.37,95.55,1.950,98.965
7.37,95.57,1.950,98.965
7.37,95.59,1.950,98.965
7.38,95.60,1.950,98.965
7.38,95.62,1.950,98.965
7.38,95.64,1.950,98.965
7.38,95.65,1.950,98.965
7.38,95.67,1.950,98.965
7.38,95.69,1.950,98.965
7.39,95.70,1.950,98.965
7.39,95.72,1.950,98.965
7.39,95.74,1.950,98.965
7.39,95.76,1.950,98.965
7.39,95.77,1.950,98.965
7.39,95.79,1.950,98.965
7.40,95.81,1.950,98.965
7.40,95.83,1.950,98.965
7.40,95.84,1.950,98.965
7.40,95.86,1.950,98.965
7.40,95.88,1.950,98.965
7.40,95.90,1.950,98.965
7.40,95.92,1.950,98.965
7.41,95.93,1.950,98.965
7.41,95.95,1.950,98.965
7.41,95.97,1.950,98.966
7.41,95.99,1.950,98.966
7.41,96.01,1.950,98.966
7.41,96.02,1.950,98.966
7.42,96.04,1.950,98.966
7.42,96.06,1.950,98.966
7.42,96.08,1.950,98.966
7.42,96.10,1.950,98.966
7.42,96.12,1.950,98.966
7.43,96.14,1.950,98.967
7.43,96.15,1.950,98.967
7.43,96.17,1.950,98.967
7.43,96.19,1.950,98.967
7.43,96.21,1.950,98.967
7.43,96.23,1.950,98.967
7.44,96.25,1.950,98.967
7.44,96.27,1.950,98.967
7.44,96.29,1.950,98.968
7.44,96.30,1.950,98.968
7.44,96.32,1.950,98.968
7.44,96.34,1.950,98.968
7.45,96.36,1.950,98.968
7.45,96.38,1.950,98.968
7.45,96.40,1.950,98.968
7.45,96.42,1.950,98.968
7.45,96.44,1.950,98.968
7.45,96.45,1.950,98.968
7.45,96.47,1.950,98.968
7.46,96.49,1.950,98.968
7.46,96.51,1.950,98.968
7.46,96.53,1.950,98.968
7.46,96.55,1.950,98.969
7.46,96.57,1.950,98.969
7.46,96.58,1.950,98.969
7.47,96.60,1.950,98.969
7.47,96.62,1.950,98.969
7.47,96.64,1.950,98.969
7.47,96.66,1.950,98.969
7.47,96.68,1.950,98.969
7.48,96.69,1.950,98.969
7.48,96.71,1.950,98.969
7.48,96.73,1.950,98.969
7.48,96.75,1.950,98.969
7.48,96.77,1.950,98.969
7.48,96.78,1.950,98.969
7.49,96.80,1.950,98.969
7.49,96.82,1.950,98.969
7.49,96.84,1.950,98.969
7.49,96.85,1.950,98.969
7.49,96.87,1.950,98.969
7.49,96.89,1.950,98.969
7.50,96.91,1.950,98.968
7.50,96.92,1.950,98.968
7.50,96.94,1.950,98.968
7.50,96.96,1.950,98.968
7.50,96.97,1.950,98.968
7.50,96.99,1.950,98.968
7.50,97.01,1.950,98.968
7.51,97.03,1.950,98.968
7.51,97.04,1.950,98.968
7.51,97.06,1.950,98.968
7.51,97.07,1.950,98.968
7.51,97.09,1.950,98.968
7.51,97.11,1.950,98.967
7.52,97.12,1.950,98.967
7.52,97.14,1.950,98.967
7.52,97.16,1.950,98.967
7.52,97.17,1.950,98.967
7.52,97.19,1.950,98.967
7.53,97.20,1.950,98.966
7.53,97.22,1.950,98.966
7.53,97.23,1.950,98.966
7.53,97.25,1.950,98.966
7.53,97.27,1.950,98.966
7.53,97.28,1.950,98.965
7.54,97.30,1.950,98.965
7.54,97.31,1.950,98.965
7.54,97.33,1.950,98.965
7.54,97.34,1.950,98.965
7.54,97.36,1.950,98.965
7.54,97.37,1.950,98.964
7.55,97.39,1.950,98.964
7.55,97.40,1.950,98.964
7.55,97.42,1.950,98.964
7.55,97.43,1.950,98.964
7.55,97.45,1.950,98.963
7.55,97.46,1.950,98.963
7.55,97.48,1.950,98.963
7.56,97.49,1.950,98.963
7.56,97.51,1.950,98.963
7.56,97.52,1.950,98.963
7.56,97.54,1.950,98.963
7.56,97.55,1.950,98.962
7.56,97.57,1.950,98.962
7.57,97.58,1.950,98.962
7.57,97.60,1.950,98.962
7.57,97.61,1.950,98.962
7.57,97.63,1.950,98.961
7.57,97.64,1.950,98.961
7.58,97.66,1.950,98.961
7.58,97.67,1.950,98.961
7.58,97.69,1.950,98.961
7.58,97.70,1.950,98.961
7.58,97.72,1.950,98.960
7.58,97.73,1.950,98.960
7.59,97.75,1.950,98.960
7.59,97.76,1.950,98.960
7.59,97.78,1.950,98.960
7.59,97.79,1.950,98.960
7.59,97.81,1.950,98.959
7.59,97.82,1.950,98.959
7.60,97.84,1.950,98.959
7.60,97.85,1.950,98.959
7.60,97.87,1.950,98.959
7.60,97.88,1.950,98.959
7.60,97.90,1.950,98.959
7.60,97.91,1.950,98.959
7.60,97.93,1.950,98.959
7.61,97.95,1.950,98.959
7.61,97.96,1.950,98.958
7.61,97.98,1.950,98.958
7.61,97.99,1.950,98.958
7.61,98.01,1.950,98.958
7.61,98.03,1.950,98.958
7.62,98.04,1.950,98.958
7.62,98.06,1.950,98.958
7.62,98.08,1.949,98.958
7.62,98.09,1.949,98.958
7.62,98.11,1.950,98.958
7.63,98.13,1.950,98.958
7.63,98.14,1.950,98.958
7.63,98.16,1.950,98.958
7.63,98.18,1.950,98.958
7.63,98.19,1.950,98.958
7.63,98.21,1.950,98.958
7.64,98.23,1.950,98.958
7.64,98.25,1.950,98.958
7.64,98.26,1.950,98.958
7.64,98.28,1.950,98.958
7.64,98.30,1.950,98.959
7.64,98.32,1.950,98.959
7.65,98.33,1.950,98.959
7.65,98.35,1.950,98.959
7.65,98.37,1.950,98.959
7.65,98.39,1.950,98.959
7.65,98.41,1.950,98.959
7.65,98.42,1.950,98.959
7.65,98.44,1.950,98.959
7.66,98.46,1.950,98.959
7.66,98.48,1.950,98.960
7.66,98.50,1.950,98.960
7.66,98.52,1.950,98.960
7.66,98.53,1.950,98.960
7.66,98.55,1.950,98.960
7.67,98.57,1.950,98.960
7.67,98.59,1.950,98.960
7.67,98.61,1.950,98.961
7.67,98.63,1.950,98.961
7.67,98.65,1.950,98.961
7.68,98.66,1.950,98.961
7.68,98.68,1.950,98.961
7.68,98.70,1.950,98.961
7.68,98.72,1.950,98.961
7.68,98.74,1.950,98.962
7.68,98.76,1.950,98.962
7.69,98.78,1.950,98.962
7.69,98.80,1.950,98.962
7.69,98.81,1.950,98.962
7.69,98.83,1.950,98.962
7.69,98.85,1.950,98.962
7.69,98.87,1.950,98.962
7.70,98.89,1.950,98.962
7.70,98.91,1.950,98.963
7.70,98.93,1.950,98.963
7.70,98.95,1.950,98.963
7.70,98.96,1.950,98.963
7.70,98.98,1.950,98.963
7.70,99.00,1.950,98.963
7.71,99.02,1.950,98.963
7.71,99.04,1.950,98.963
